"SNP","Chr","Pos","Effect","SE","DM_NIRS.MLM"
"chr01_10004826",1,10004826,0.249223298036497,0.678481474570086,0.713737817579055
"chr01_10151663",1,10151663,-0.508592821787261,0.715179002627641,0.477767907908443
"chr01_10367331",1,10367331,0.0568142557824558,1.01427588909855,0.955382197871095
"chr01_10386693",1,10386693,-1.15569848330739,0.537789983465636,0.0327536405639016
"chr01_10394249",1,10394249,-1.08619063682681,0.947381406339847,0.252854914168341
"chr01_10459214",1,10459214,0.0320663590343031,0.488763482871606,0.947751592537444
"chr01_10500903",1,10500903,-0.337833095315261,0.501687458880975,0.501420179288322
"chr01_10507110",1,10507110,-0.198393301820943,0.758898628621984,0.794016838368729
"chr01_10864521",1,10864521,-0.0581640917715731,0.62309839677182,0.925715172228005
"chr01_10866174",1,10866174,-0.646777880259833,0.829499732393849,0.436412932123873
"chr01_11074216",1,11074216,0.264593883281862,0.758484400606475,0.727546673936018
"chr01_11125873",1,11125873,-0.137203651955872,0.557680147704456,0.805897045606673
"chr01_11456355",1,11456355,0.333454485232835,0.471379721615079,0.480083386577451
"chr01_11460558",1,11460558,0.67677212127856,1.02603279863031,0.510215916836663
"chr01_11617274",1,11617274,0.105966823898143,1.32456207021152,0.936310555941438
"chr01_11671587",1,11671587,0.578193180786542,0.622906994349119,0.354335640340414
"chr01_1170574",1,1170574,-0.179415901416689,0.557460686376756,0.747882864914462
"chr01_11706644",1,11706644,0.150530695435791,0.553160770175832,0.785784527830979
"chr01_1203737",1,1203737,-0.220177585252827,0.609554170718623,0.71829651562886
"chr01_1205059",1,1205059,-0.937268009706031,0.825007654365204,0.257191228281681
"chr01_12130342",1,12130342,-0.425416333232647,0.705406064056484,0.547091071242896
"chr01_12149915",1,12149915,-0.153027013622676,0.560363126841213,0.785049663933276
"chr01_12436835",1,12436835,0.518994801124563,0.654179280222183,0.428447109318656
"chr01_12557779",1,12557779,0.36920521929801,0.874581540385596,0.673336847922352
"chr01_12639562",1,12639562,0.328889160546737,0.677326307106855,0.627766706975111
"chr01_12677718",1,12677718,-0.323162600790198,0.551078718057481,0.558209675593128
"chr01_12691348",1,12691348,-0.525659307508931,0.676420984396766,0.437943011432779
"chr01_12887212",1,12887212,0.0388879026002087,0.653516821168077,0.952604687650693
"chr01_12898407",1,12898407,-0.659503432169345,0.661474162858373,0.319875246974593
"chr01_13312315",1,13312315,0.755698165802869,0.838362635844973,0.36838553382481
"chr01_13355185",1,13355185,1.04473787082429,0.586898066719072,0.0764717204358791
"chr01_13635364",1,13635364,0.76928026892756,0.659560597023657,0.244764018154732
"chr01_1371423",1,1371423,-0.457664380413917,0.658084286044565,0.487524644023274
"chr01_13729398",1,13729398,0.102753561043528,0.606579673424191,0.865642641210334
"chr01_13759524",1,13759524,-0.470835128091608,0.779349042784439,0.546388199605949
"chr01_13917360",1,13917360,0.292079095510871,1.98687443951408,0.883266377287052
"chr01_14073951",1,14073951,0.832091164539065,0.655607946292254,0.205745454181058
"chr01_14127574",1,14127574,0.446060825056747,1.0263309476913,0.664276379993254
"chr01_14390149",1,14390149,0.602006006969248,1.04368656680418,0.564673077358409
"chr01_14405039",1,14405039,0.361633887889411,0.624997906865613,0.563453831327736
"chr01_14405646",1,14405646,-0.463459433698745,0.614215486028955,0.451341649560414
"chr01_15115460",1,15115460,0.353688853654376,0.625167866277097,0.572153561899222
"chr01_1513509",1,1513509,-0.163919297357268,0.526767761738577,0.755965715269399
"chr01_1520463",1,1520463,0.477610753291856,0.912700914778481,0.601308708629885
"chr01_15295957",1,15295957,0.70820651966028,0.622727623429395,0.256693256160409
"chr01_156276",1,156276,-0.0834858911444485,0.536717516884118,0.876534442706773
"chr01_15661908",1,15661908,-0.376743255925589,0.622098494992516,0.545418717194041
"chr01_15723481",1,15723481,-0.602009825358721,0.595112896560282,0.31287155139112
"chr01_15768615",1,15768615,0.871042607174331,0.585689226182262,0.138424550628313
"chr01_15770973",1,15770973,0.115602934324897,0.968147068653417,0.905064906412523
"chr01_15774616",1,15774616,-0.364774883392158,0.584979856170843,0.53357212606435
"chr01_16030996",1,16030996,0.289099690717649,0.62778759145389,0.645618790450992
"chr01_16031834",1,16031834,-0.221224327613129,0.542109711817414,0.683620774651567
"chr01_16054748",1,16054748,-0.299178985970514,0.592408225436788,0.614060887843765
"chr01_16102261",1,16102261,0.375683522831253,0.589391558974367,0.524536613675346
"chr01_16273146",1,16273146,0.144051409233725,0.789395621176906,0.855375516128828
"chr01_1633957",1,1633957,0.797990165536817,0.690374859294012,0.249013284683933
"chr01_16582507",1,16582507,-0.036329197820379,0.629870270195991,0.954059268003505
"chr01_16593540",1,16593540,0.51202370166402,0.671852225394168,0.446831004906582
"chr01_16826063",1,16826063,0.600067857722252,0.66580892789407,0.368457848467541
"chr01_16826687",1,16826687,0.0137231241600375,0.605232413252216,0.981931233776595
"chr01_1707068",1,1707068,-0.883927276698955,0.827597856313169,0.286689507595077
"chr01_17076548",1,17076548,0.740535551091398,0.648169158915474,0.254515482101204
"chr01_17109043",1,17109043,1.31189340528931,0.666945893578843,0.0504675663147441
"chr01_17120007",1,17120007,-0.613161506293636,0.613522480011648,0.318718799181096
"chr01_17225829",1,17225829,-0.485714528035828,0.691855066878405,0.483409385495378
"chr01_17457946",1,17457946,0.863475583312947,0.718590986871589,0.230831494144171
"chr01_1762683",1,1762683,-0.151952172510505,1.10832629441571,0.89107959860693
"chr01_17732729",1,17732729,1.21040934763698,0.70068257080717,0.0855190269933536
"chr01_17785660",1,17785660,-0.312099250500523,0.73594356055012,0.671931169741498
"chr01_17802399",1,17802399,0.79656235895925,0.896593015583501,0.37530102778262
"chr01_1783281",1,1783281,-0.442435789010915,0.610124354295908,0.469144382223728
"chr01_17868655",1,17868655,0.984093344475468,0.967024960712873,0.309987906033359
"chr01_17974096",1,17974096,-0.078406789416249,0.88177033504188,0.929228467840077
"chr01_18226286",1,18226286,-0.454553862490002,0.874168638092877,0.60360957702285
"chr01_18227727",1,18227727,0.894550687722813,0.718817048092889,0.214679266909496
"chr01_1830667",1,1830667,0.353160744380148,0.919179190591632,0.701200189099973
"chr01_18542556",1,18542556,0.55885391610866,1.08455471063212,0.606883829662703
"chr01_1861268",1,1861268,-0.771451635166613,0.834872640238669,0.356503928856481
"chr01_1885535",1,1885535,0.819532579385168,0.90400663667034,0.365656556219466
"chr01_18926892",1,18926892,-0.0676197061489461,0.598873463027692,0.910206067616526
"chr01_19291098",1,19291098,-1.03357265631962,1.13973109434377,0.365497883601231
"chr01_19295910",1,19295910,-0.556101978752395,0.937850874678043,0.553835443713952
"chr01_19391419",1,19391419,-0.381902334204824,1.14710531127661,0.739513796935475
"chr01_19425881",1,19425881,0.629761894180547,0.768544457940391,0.413453353948495
"chr01_19491634",1,19491634,-0.549801629663762,0.669595148200157,0.412501325292506
"chr01_19492635",1,19492635,-0.286207410874567,0.634921546019547,0.652605253300506
"chr01_1976428",1,1976428,-0.00707343775712843,0.526478759220372,0.989292905753728
"chr01_19789358",1,19789358,-0.938355539433928,0.585402909621295,0.110419824392257
"chr01_19790314",1,19790314,-0.0675414610152529,0.83274845229159,0.935432565000106
"chr01_19794182",1,19794182,-0.256338925612681,0.655497384736931,0.696140003564637
"chr01_2004082",1,2004082,-0.0554829480999217,0.446205064396629,0.90115904114043
"chr01_20050245",1,20050245,-0.475142624660521,0.737589978262426,0.520143673012929
"chr01_20088182",1,20088182,-0.568830347825838,0.561732954857274,0.312372859835449
"chr01_20138138",1,20138138,-0.906618676030178,0.605196559960497,0.135585292782046
"chr01_20322508",1,20322508,0.466572622077592,0.894826009307127,0.602616775113498
"chr01_20330444",1,20330444,-1.11966798250569,0.756152690249277,0.140138954994321
"chr01_20331158",1,20331158,0.524520239262984,1.26323396070698,0.678394788323231
"chr01_20489190",1,20489190,1.41211628324982,1.52798726927455,0.356435129967493
"chr01_20509239",1,20509239,0.441976386119848,0.565985344565883,0.435721903809881
"chr01_20530953",1,20530953,-1.47039630041945,1.08134060209356,0.175320600417821
"chr01_20636109",1,20636109,0.4299174635795,0.687426120413156,0.532370702184365
"chr01_20667722",1,20667722,0.670814574723522,0.744243289838881,0.368417332698361
"chr01_20767259",1,20767259,0.412157375038987,0.946374739328947,0.663627871740068
"chr01_20770961",1,20770961,0.426364250006145,0.860482132616602,0.620757095352699
"chr01_20871256",1,20871256,-0.119848773959347,1.78145773300528,0.946424761050305
"chr01_2093431",1,2093431,0.312799196571859,0.622712751467832,0.615958637317329
"chr01_20966565",1,20966565,-0.429746920978175,0.60616584079895,0.479117760046785
"chr01_21155392",1,21155392,1.61396615571994,0.855132136597694,0.0604553140440303
"chr01_21284235",1,21284235,0.0285982383021519,0.699147821608391,0.967410050761566
"chr01_21304949",1,21304949,-0.424870802553642,0.812646906269086,0.601635519414129
"chr01_21543232",1,21543232,-1.01369632212266,0.632579752158113,0.110517659799961
"chr01_21691298",1,21691298,0.436842567590617,0.440463945641085,0.32242056554437
"chr01_2179364",1,2179364,-0.99625525695933,1.07193353024657,0.353724012571902
"chr01_21804725",1,21804725,-1.48306113750266,0.6530516030306,0.0241391073881199
"chr01_21907179",1,21907179,-0.496164341836902,0.60925746068832,0.416330964059124
"chr01_21925058",1,21925058,0.0600454339975158,0.597983374252402,0.920109849223007
"chr01_21945573",1,21945573,-0.494108352794399,0.580157155943307,0.395339254939457
"chr01_22070856",1,22070856,-0.420356978569089,1.01601469055186,0.679483374345764
"chr01_22158873",1,22158873,-0.265694168151072,0.743808016623381,0.721286474449149
"chr01_22282534",1,22282534,-0.0910793221226527,0.451268367638972,0.840240762156591
"chr01_22338076",1,22338076,-0.053524227092737,0.449102487630188,0.905243695168377
"chr01_22464053",1,22464053,0.0142448849936159,0.548003579822076,0.97928611848016
"chr01_22541997",1,22541997,-0.178803676549137,0.894984755735665,0.8418383085113
"chr01_22611029",1,22611029,-0.283298654073548,0.6705846582486,0.673107712471376
"chr01_22686521",1,22686521,0.263084312417618,0.69094992009846,0.703759194814069
"chr01_22923999",1,22923999,-0.85820777814024,0.647384520269602,0.186361194005989
"chr01_22998086",1,22998086,0.219767724066969,1.05846221832224,0.835714992001303
"chr01_23068672",1,23068672,-0.351261599501413,0.523127542583077,0.502645436513977
"chr01_23084855",1,23084855,-0.294333715382379,0.585265677443085,0.61554502181963
"chr01_23144120",1,23144120,-0.0242719386042154,0.377890914191425,0.94884675761691
"chr01_23269024",1,23269024,-0.154467209383995,0.638268785940719,0.809003361235189
"chr01_23333716",1,23333716,1.92408903085152,1.60374664655056,0.231558312634318
"chr01_23489335",1,23489335,0.0351027257399892,0.85733308964526,0.967378462141018
"chr01_23657456",1,23657456,-0.272353798554832,0.675593586376042,0.687251277846696
"chr01_23693032",1,23693032,-1.67069055383877,0.821861714316495,0.0433007286064194
"chr01_23746318",1,23746318,-0.0995610039889243,0.824001875229693,0.903941550384
"chr01_23873016",1,23873016,0.289578587983243,0.521769244762728,0.579475978543081
"chr01_23889049",1,23889049,0.212985942996568,0.408684301223921,0.602798440196322
"chr01_24034499",1,24034499,0.68395201568859,0.728350252763744,0.348762549150729
"chr01_2415250",1,2415250,1.07817228612475,0.703275441738371,0.126728121114047
"chr01_2415804",1,2415804,-0.359011960533735,0.808345486513482,0.657393965785128
"chr01_24201194",1,24201194,-0.0412464294331585,0.742684832942822,0.95576229072538
"chr01_24280724",1,24280724,-0.829673624891711,0.928318309034663,0.372461265153538
"chr01_24316666",1,24316666,0.444115829724808,0.732304998714321,0.54484720965057
"chr01_2432095",1,2432095,-0.623878673280046,0.487854867528202,0.202338972801691
"chr01_2435851",1,2435851,0.284722572833459,0.554408487562003,0.608086313942021
"chr01_24390059",1,24390059,-0.85884590278738,0.913984986188605,0.348440433882334
"chr01_24443464",1,24443464,0.934774282459387,0.599328651612527,0.120300988324843
"chr01_24450376",1,24450376,0.904303670406762,1.01951844466052,0.37607486243122
"chr01_24484663",1,24484663,0.150360840640815,0.953714479252116,0.874874162820672
"chr01_2449296",1,2449296,0.428230235108003,0.609985473060363,0.483417567412374
"chr01_24541544",1,24541544,0.404065868980695,0.770189129791125,0.600379536847866
"chr01_24567030",1,24567030,-0.944940067185371,0.985556345328941,0.338742257928425
"chr01_24619931",1,24619931,0.646055307499182,0.850483516732476,0.448306116948779
"chr01_2472676",1,2472676,0.132420974913089,0.715851138983563,0.853416000696823
"chr01_24826610",1,24826610,1.02236538979571,0.746396424224182,0.172198441209733
"chr01_2484534",1,2484534,0.17937695268472,0.644697278405772,0.7810998352963
"chr01_24941533",1,24941533,1.46859876430949,0.631805926839687,0.021034818349817
"chr01_24982151",1,24982151,0.836140097722534,0.550713672811736,0.13041173354134
"chr01_25014191",1,25014191,1.87411024331436,0.750804568461444,0.0133065912862548
"chr01_25016954",1,25016954,1.16828999168308,0.673147364262623,0.0840738228612801
"chr01_2504459",1,2504459,-0.367711236375726,0.452085807174196,0.416908053287954
"chr01_25099192",1,25099192,0.970941219806718,0.622874097096522,0.120512544481222
"chr01_25113668",1,25113668,0.0035627485826808,0.812095616615803,0.996503675932299
"chr01_25229368",1,25229368,-0.696417492353589,0.693979317380445,0.31674132595613
"chr01_25289288",1,25289288,0.62160807105198,0.506208170396031,0.220801148024645
"chr01_25294479",1,25294479,0.498428206657877,0.459785307018878,0.279558750018069
"chr01_25337854",1,25337854,0.157146101505191,0.645638883592788,0.80793049764108
"chr01_25362716",1,25362716,-0.490964918099507,0.925162605151511,0.596188545940769
"chr01_25393424",1,25393424,0.319500873355423,0.693366985720032,0.645410586602521
"chr01_25443483",1,25443483,0.230367830598993,0.582307786475987,0.692783702767847
"chr01_25532677",1,25532677,0.316632011378601,0.623101272739421,0.61186562705492
"chr01_2556323",1,2556323,-0.511483434577258,0.617709652419848,0.408570494508994
"chr01_2569979",1,2569979,-0.141691854422447,0.731807155063028,0.846656927174077
"chr01_25845667",1,25845667,0.14655628278993,0.598998841595001,0.806946294655892
"chr01_25880934",1,25880934,-2.42230858124321,0.850131553106013,0.00480683812034002
"chr01_25881382",1,25881382,0.427124571015156,0.818223453194061,0.602197569662356
"chr01_25881530",1,25881530,-0.520284679229121,0.630108182667634,0.409885651941704
"chr01_2592090",1,2592090,-0.305292065165304,0.663253722919173,0.645770004704528
"chr01_25944294",1,25944294,-1.6288125944252,1.06750409121135,0.128525898301563
"chr01_25993680",1,25993680,0.210983660952479,2.95991636561125,0.943240951656342
"chr01_25998363",1,25998363,-0.96132358339446,0.848963029265508,0.25874844722246
"chr01_26086515",1,26086515,0.357706334437978,0.598311885279978,0.550563022720192
"chr01_26089345",1,26089345,0.21440413191948,0.551542552279963,0.697856561630194
"chr01_26134955",1,26134955,-0.133266904158518,3.56718973122225,0.970233368902053
"chr01_2615400",1,2615400,0.00505235908360646,0.886290741839532,0.99545691666498
"chr01_26158581",1,26158581,-0.824640362655714,0.725948456610888,0.257242581986946
"chr01_26190062",1,26190062,-0.882223635449975,0.520251045626405,0.0913778720055995
"chr01_26324075",1,26324075,0.0344147675648969,0.610794714719355,0.955119898466181
"chr01_26431578",1,26431578,-0.269526065515606,0.507971367351669,0.596248443937084
"chr01_26434520",1,26434520,-0.460389239905908,0.706266625874711,0.515185642937458
"chr01_26521454",1,26521454,-0.627121248328422,0.725222740637818,0.388151238481669
"chr01_26521590",1,26521590,-0.530920517696586,0.665673837168044,0.426000877526328
"chr01_26529842",1,26529842,0.523524919748752,0.576389587516913,0.364745638670139
"chr01_26662163",1,26662163,0.0392384554084515,0.695402315435012,0.955055209020573
"chr01_26679152",1,26679152,0.381000669325999,0.816328001811853,0.641169245249385
"chr01_26679655",1,26679655,0.0652903924037673,1.00313337399755,0.948165644581127
"chr01_26767744",1,26767744,-0.655090742833409,0.503842126863132,0.194927764848037
"chr01_26771973",1,26771973,0.948626992064192,0.867244308292238,0.275248907574928
"chr01_26834511",1,26834511,2.59020553066512,2.93249401168032,0.378073009038171
"chr01_26839647",1,26839647,0.384765036982344,0.79982848528332,0.630963458465424
"chr01_26886269",1,26886269,-0.367437436125101,0.976942127282371,0.707206187621546
"chr01_26920613",1,26920613,-0.518358877160608,0.722050262455389,0.473599137503436
"chr01_26979040",1,26979040,0.574353580291131,0.657198362491105,0.38312468936044
"chr01_26990235",1,26990235,0.120060563718425,0.949967244883489,0.899546158156811
"chr01_27034376",1,27034376,-0.224554390582455,0.551932455041905,0.684521997629843
"chr01_27137348",1,27137348,0.300052192756084,0.969213758912307,0.757177849723314
"chr01_27138077",1,27138077,0.533860321374846,0.631894345736239,0.39912988030869
"chr01_2721826",1,2721826,0.36913816856287,0.553247256879624,0.505346474342045
"chr01_27300138",1,27300138,0.14871952028534,0.87573579524122,0.865309525304502
"chr01_27305285",1,27305285,0.345954144398917,0.538507528214135,0.521277568833228
"chr01_2743293",1,2743293,0.734547657415533,0.885228431104518,0.40758175969692
"chr01_2746081",1,2746081,1.49842281678457,1.53397189878616,0.32975337772057
"chr01_27478092",1,27478092,0.019275537632609,0.552025183058388,0.972177636290239
"chr01_27527881",1,27527881,0.129780583700267,2.96770095773332,0.965159401560576
"chr01_27716768",1,27716768,-0.28951408444118,0.641028722992037,0.65198375148764
"chr01_27719461",1,27719461,-0.779062646852935,0.758950401556106,0.305809420596499
"chr01_27737410",1,27737410,0.704285142596063,0.815661367683258,0.388850726081262
"chr01_27873765",1,27873765,-0.491514307487705,0.927380975326141,0.596657053560187
"chr01_27888440",1,27888440,1.69869031691042,0.687695973184914,0.014285073219613
"chr01_27896076",1,27896076,-0.695948657003783,0.878200612781077,0.428959554449199
"chr01_27959108",1,27959108,-0.449871138856452,0.828588649685033,0.587735831782245
"chr01_27966626",1,27966626,0.000933796196420644,0.598464593891094,0.998756492149679
"chr01_28039549",1,28039549,-1.10231215711121,0.739765219793164,0.137667750563755
"chr01_28126221",1,28126221,-1.35431621956786,0.812725513317636,0.0970922801416596
"chr01_28255228",1,28255228,-0.40357962718673,0.461403798169326,0.382725305186027
"chr01_28316341",1,28316341,-0.464823909755751,0.922359409424097,0.614811842472838
"chr01_28326510",1,28326510,-0.101312635036322,0.580061111214985,0.861512296796395
"chr01_28327033",1,28327033,0.101588618233052,0.575591213367797,0.860071696807231
"chr01_28328518",1,28328518,-0.501911288554368,0.631350702464994,0.427501749418582
"chr01_2838322",1,2838322,0.585079665554076,1.00254395448653,0.560104523753627
"chr01_28424913",1,28424913,-0.115197817159981,0.590289547816683,0.845456090406848
"chr01_2844907",1,2844907,-0.443601032101014,0.71973583007115,0.53832303353167
"chr01_28511520",1,28511520,-0.0866121927401764,1.5581766501045,0.955723551866413
"chr01_28535711",1,28535711,-0.114551384453875,0.703391882475601,0.870785009458179
"chr01_28649412",1,28649412,-0.222589420676741,0.907044249750132,0.806380162839421
"chr01_28674840",1,28674840,0.534488016363071,0.77756152579323,0.492577830000698
"chr01_28744793",1,28744793,-0.00344866686009482,1.55071349913908,0.998227630016531
"chr01_28758380",1,28758380,0.11199289383822,0.519114446853773,0.829396236509776
"chr01_2880314",1,2880314,0.038933492117053,0.946119372508249,0.967213929605987
"chr01_28817274",1,28817274,-0.514036686828817,0.648862951448113,0.429110593942922
"chr01_28844397",1,28844397,-1.35657317825167,0.753819717436629,0.0733260514139111
"chr01_29074093",1,29074093,-0.923455079241648,1.21610847245355,0.448473433361229
"chr01_29095637",1,29095637,-1.06234605848772,0.650196634848195,0.103746588031317
"chr01_29152234",1,29152234,0.220067232309958,0.537492246180787,0.682629299741824
"chr01_29201084",1,29201084,-0.642368368265579,0.681079043530959,0.346656290332412
"chr01_29400170",1,29400170,-3.18848758262266,1.92861108680813,0.099738197027205
"chr01_29442159",1,29442159,0.109677392410561,0.538313577808269,0.838747386208479
"chr01_29571299",1,29571299,0.113407755315393,0.677028342044284,0.867127697025507
"chr01_29608354",1,29608354,0.344314073976875,0.803816313846835,0.668825713172073
"chr01_29914709",1,29914709,-1.91700086649848,1.05619467861362,0.0709162699511766
"chr01_29926464",1,29926464,-0.22050012160804,0.616952635082097,0.721141440724703
"chr01_30028696",1,30028696,-0.303828679832804,0.896278594679126,0.734948791545853
"chr01_3004429",1,3004429,-0.648608496598968,0.57738610298521,0.262540320763931
"chr01_30046325",1,30046325,0.0837899853392514,0.604090344434185,0.889813574812528
"chr01_30136967",1,30136967,-0.554735626234333,0.675420885330926,0.412374696193149
"chr01_30266150",1,30266150,0.0390119541217473,0.736316777198974,0.957794992279709
"chr01_30285471",1,30285471,-0.390175094737515,0.679793494300762,0.566594006875029
"chr01_30291971",1,30291971,0.282808707976756,0.822773895676027,0.731388328852107
"chr01_3039807",1,3039807,-0.0840780033104238,0.83823604327053,0.920196852652835
"chr01_30428165",1,30428165,-0.687732087102916,0.712477296161217,0.335494684080196
"chr01_30432434",1,30432434,-0.0760002173255998,0.580397336302879,0.895941139244275
"chr01_30548050",1,30548050,-0.0760656759185281,0.684751481985523,0.911652507338768
"chr01_30573400",1,30573400,-0.683195580119161,0.715333211199295,0.340613285048636
"chr01_30695647",1,30695647,-0.285987126193618,0.545862343260722,0.600875205007233
"chr01_31004147",1,31004147,0.293540854938556,0.887599056740867,0.741183084920899
"chr01_31078631",1,31078631,-0.617295780442703,0.72199730496706,0.393512010925294
"chr01_31140713",1,31140713,0.0667720049812033,0.63167414321227,0.915913852407455
"chr01_31184982",1,31184982,-1.31280957317381,1.05660540250515,0.215413489546489
"chr01_31194281",1,31194281,0.274939707784029,0.73573528118122,0.709000374486888
"chr01_31196354",1,31196354,-1.56535269903077,0.767715833724609,0.0426762422343882
"chr01_31247440",1,31247440,-0.61769383837435,0.751171966577922,0.411813315968526
"chr01_31455121",1,31455121,-0.324936973401691,0.819921483565693,0.692274881457815
"chr01_31469641",1,31469641,0.392035630134274,0.633165280777835,0.536461265751881
"chr01_31498756",1,31498756,-2.20850956958591,0.377179546114414,1.76433002523147e-08
"chr01_31507545",1,31507545,-0.785637124857232,0.55828788426824,0.160804437455066
"chr01_31529906",1,31529906,-0.57571674712085,0.625738621017879,0.358572815525563
"chr01_31544211",1,31544211,2.08775141469454,0.458823538535295,8.95743683674671e-06
"chr01_31570756",1,31570756,-0.384509274773052,0.545306239410189,0.481495403434979
"chr01_31692036",1,31692036,0.600799798485923,0.657620807067904,0.361952493768855
"chr01_31766350",1,31766350,0.564919158372277,0.784872381118905,0.472454919042974
"chr01_31830543",1,31830543,-0.652390301272135,0.999589138379467,0.514673718987062
"chr01_31831705",1,31831705,1.18317785612362,0.886642006748069,0.183468564838204
"chr01_32001190",1,32001190,3.57436468852904,0.616261756871259,2.34793537833859e-08
"chr01_32036233",1,32036233,-0.0739709891806797,0.976585029231535,0.939692768657979
"chr01_32104506",1,32104506,0.016492936077384,0.945834775804542,0.986103812772647
"chr01_32409587",1,32409587,-0.106889491177753,1.45865306568512,0.941651765503117
"chr01_32410496",1,32410496,-0.110852962255649,0.90682786701348,0.902821102906503
"chr01_32540318",1,32540318,-0.27918301657337,0.585761214077756,0.634119805860723
"chr01_32613009",1,32613009,-0.18279359019823,0.622482214384814,0.769306563396886
"chr01_32687089",1,32687089,2.68998216922716,0.562827297515555,3.25691718771299e-06
"chr01_32694239",1,32694239,3.73624701064239,0.691018407823047,1.70001032157285e-07
"chr01_32694761",1,32694761,1.69156898281187,0.479228566102475,0.000508654573915299
"chr01_3272828",1,3272828,0.225439167994864,0.810766014958133,0.781235816214981
"chr01_33067627",1,33067627,-2.93984463434373,0.516021771692537,3.97906674044005e-08
"chr01_33081345",1,33081345,-1.94622865699006,0.509432619516325,0.000174392824899453
"chr01_33186603",1,33186603,-0.177195064580246,0.714702892549284,0.804426517779293
"chr01_33199949",1,33199949,0.118349808845608,0.571522403521833,0.836144808210672
"chr01_33222617",1,33222617,2.52653769200469,0.549974429015552,7.40727198649265e-06
"chr01_33244439",1,33244439,-6.77526435688856,0.882484082631825,5.62756438764905e-13
"chr01_33250754",1,33250754,2.02931485373151,0.475630675438644,2.97514029599598e-05
"chr01_33359326",1,33359326,3.85375035085997,0.649116786625997,1.15311643597146e-08
"chr01_33422365",1,33422365,0.231645218513847,0.687949029726677,0.736657496418042
"chr01_33617647",1,33617647,-0.561879002555713,0.496750677838482,0.25926946509765
"chr01_3368491",1,3368491,0.127783490207861,0.509953134304814,0.802378999188907
"chr01_33697094",1,33697094,-0.41001359143479,0.654893935567417,0.531928969522568
"chr01_33701403",1,33701403,-0.286237435033286,0.676408877196213,0.672592606004775
"chr01_33787351",1,33787351,-0.647476237945511,0.706471636536988,0.360435285979456
"chr01_33843130",1,33843130,-0.551106326673221,0.629268114370838,0.382121939142943
"chr01_33932284",1,33932284,-0.613944880081817,0.733166665649216,0.403304438651985
"chr01_34096636",1,34096636,0.9462155153401,1.40660261966548,0.501863259123067
"chr01_34381013",1,34381013,-0.285477614091974,0.744474672169226,0.701756275166366
"chr01_34384950",1,34384950,0.423872297497155,0.754567505412927,0.574876883688204
"chr01_34569381",1,34569381,0.412896785941598,0.663202667596926,0.53422024212875
"chr01_34582819",1,34582819,0.454380135778251,0.515264910086301,0.378849270122153
"chr01_34671057",1,34671057,-2.63324678031307,0.526875804363217,1.20041178173994e-06
"chr01_3473612",1,3473612,-0.750535651803148,1.12312788320034,0.504687700719453
"chr01_34862876",1,34862876,-0.793074481865915,1.13099779227312,0.483926084377993
"chr01_3495915",1,3495915,1.59414577848838,0.929692498004955,0.0878407742904602
"chr01_34963322",1,34963322,-4.46388128102944,0.711574533113551,1.91725326974744e-09
"chr01_3516363",1,3516363,-0.301145799056599,0.683178758289271,0.659800057770406
"chr01_35253006",1,35253006,-1.84568636676437,0.470047076659061,0.000116035978879022
"chr01_35262632",1,35262632,-0.106768675552985,0.576233099060771,0.853178373473513
"chr01_3528987",1,3528987,-1.07106890961597,0.589711761072068,0.0707234873315745
"chr01_35739046",1,35739046,-2.17100303612301,0.550693506191534,0.000109171593282718
"chr01_35803322",1,35803322,0.0100508279441556,0.733124385779889,0.989074392988611
"chr01_3583698",1,3583698,0.103259193660847,0.559685888999971,0.853799130155758
"chr01_35951952",1,35951952,-3.38085042615441,0.641343480093468,3.28572022736487e-07
"chr01_36123634",1,36123634,-0.614208838430841,0.986895011631131,0.534361425888042
"chr01_36210858",1,36210858,-2.45591500162391,0.658980704348212,0.000247893085443318
"chr01_36212929",1,36212929,-1.8447996279275,0.622357195121002,0.00337674899401542
"chr01_36306300",1,36306300,-0.528082877253212,0.615206377536808,0.391636784263518
"chr01_36342222",1,36342222,-2.58215984740119,0.581433679793339,1.43177031373604e-05
"chr01_36365889",1,36365889,0.490061658097829,0.752304347011761,0.515474882366913
"chr01_36478419",1,36478419,-3.09386662708368,0.64419091275629,2.93245830685269e-06
"chr01_36511514",1,36511514,0.217855814646782,0.631399241318593,0.730404202088473
"chr01_36604810",1,36604810,-2.35986214641576,0.592757606839698,9.38127231038866e-05
"chr01_36643619",1,36643619,-2.09811622015016,0.58950570660408,0.00045791356094909
"chr01_36665030",1,36665030,-2.32079510430685,0.800467062757216,0.00412787328282401
"chr01_36671166",1,36671166,-1.28426955568543,0.548034903437965,0.0200213520029909
"chr01_36754746",1,36754746,-3.02350940817612,0.643949608576754,4.74235565981194e-06
"chr01_3685775",1,3685775,-0.0848018166607858,0.514045813403458,0.869123088953839
"chr01_36905272",1,36905272,0.446046014254534,0.697122204792278,0.522958454963736
"chr01_36946456",1,36946456,-2.54080937253661,0.649597064982286,0.000123084481390886
"chr01_37025260",1,37025260,0.778646738958628,0.631547417209686,0.218952402667035
"chr01_37058184",1,37058184,-5.38087335788646,0.920617407485926,1.86280631153458e-08
"chr01_371004",1,371004,-1.59572497712338,1.04878223784826,0.129603090178008
"chr01_37155583",1,37155583,-1.7466725686582,0.576345528689674,0.00274005273860521
"chr01_37213095",1,37213095,-1.04286361367554,0.938359163598598,0.267650657770771
"chr01_37225079",1,37225079,-4.16240185391837,0.854700260793698,2.16137293576707e-06
"chr01_3726802",1,3726802,-0.699360655824194,0.536891504201171,0.194101217915011
"chr01_37312095",1,37312095,-1.48977489061281,0.531250196301061,0.00550467397318122
"chr01_37330141",1,37330141,-3.04151565485915,0.659724195465326,6.89598315194541e-06
"chr01_37460442",1,37460442,-3.79066736648736,0.778889632541084,2.19366688680592e-06
"chr01_37531103",1,37531103,-2.41321954132309,0.635859930999478,0.000191833786136865
"chr01_37601557",1,37601557,-2.8646096692238,0.627014348208601,8.26906250217628e-06
"chr01_3762590",1,3762590,1.14564105820608,0.5302074264646,0.0318208488061556
"chr01_37733750",1,37733750,-0.578134306826541,1.11971665038673,0.606160182294973
"chr01_37812542",1,37812542,0.322675267432487,0.661460720462241,0.626172821229623
"chr01_37823545",1,37823545,0.271456589945728,0.659796652598161,0.681171025999515
"chr01_37830831",1,37830831,0.349445721962638,0.643714212908623,0.587789553533348
"chr01_37905733",1,37905733,-2.54489464449216,0.660676902593351,0.000154644509449771
"chr01_37921647",1,37921647,-1.21741776116392,0.858474643722623,0.15760429289884
"chr01_37977650",1,37977650,-2.05762314025071,0.637296524219962,0.00143835727446169
"chr01_38049236",1,38049236,-0.733387290512042,0.626993564007311,0.243421317485888
"chr01_38110428",1,38110428,-0.159209431766271,0.577963178176169,0.783222504732304
"chr01_38111908",1,38111908,-0.333768495351933,0.597444848832098,0.576975203616869
"chr01_38243587",1,38243587,-0.197954283804449,0.645372152172806,0.75934659261664
"chr01_38281751",1,38281751,1.1129337690237,0.628898933133558,0.0782021963540908
"chr01_38307262",1,38307262,0.873385075653232,0.640786506486252,0.174311678161875
"chr01_38709182",1,38709182,-0.513460956205165,0.568561928038496,0.367490342947256
"chr01_38912456",1,38912456,0.200529389389203,0.854710917424199,0.814729588265535
"chr01_3901738",1,3901738,0.0491625444041119,0.772376142484444,0.949307228676254
"chr01_3912340",1,3912340,-0.391011535255871,0.676313367769432,0.563766957149191
"chr01_39275829",1,39275829,-0.1618428795814,0.836478587259541,0.846764792666103
"chr01_3934285",1,3934285,-0.792578372388448,0.501941096699499,0.115800045904654
"chr01_39392062",1,39392062,-0.314085088984939,0.428386515360481,0.464246359264353
"chr01_39413610",1,39413610,-0.633589580676414,0.674165703100439,0.348368232283167
"chr01_39435399",1,39435399,-0.104749976746461,0.589256254642095,0.859073789106748
"chr01_39492254",1,39492254,0.0623600025217002,0.847390574059046,0.941404549879541
"chr01_39492949",1,39492949,-0.6788426758784,0.630308256496383,0.282686743565917
"chr01_39667590",1,39667590,-1.11332784495266,0.891686726848494,0.213182481551884
"chr01_39691158",1,39691158,-0.116313604266679,0.84904664117813,0.891164379777437
"chr01_39741448",1,39741448,-0.429816437117438,0.679493475143908,0.527696961943338
"chr01_39773761",1,39773761,-0.171231536902042,1.03922691989491,0.869281252025182
"chr01_39856300",1,39856300,0.455839175505389,1.16919539529987,0.697015482204208
"chr01_39870679",1,39870679,0.523844741167522,0.675646554487256,0.439000374140109
"chr01_39935541",1,39935541,0.95272175362652,0.817862742116999,0.245353569643156
"chr01_40259869",1,40259869,-0.748367120972858,0.488559805365739,0.127046308893019
"chr01_40280810",1,40280810,-0.218756268550237,0.605299267640773,0.718153969804875
"chr01_40375117",1,40375117,0.0607999250879629,0.704004789062807,0.931258279526182
"chr01_40462213",1,40462213,-1.41194598704328,0.923428086426732,0.127727785574815
"chr01_40568279",1,40568279,-1.95611955300717,0.773547055471589,0.0121640200453764
"chr01_40592211",1,40592211,0.980975777617743,0.578435666797847,0.0913500907692291
"chr01_4061495",1,4061495,-0.849303020852972,0.58544843421027,0.148324130332922
"chr01_40740075",1,40740075,-0.716748144043663,0.761053145457582,0.347359911841872
"chr01_40741604",1,40741604,-0.827508943914154,0.930070052508674,0.374606649050753
"chr01_40775568",1,40775568,-0.407023557354279,0.412263982894243,0.32461091389558
"chr01_407922",1,407922,-0.227452711903311,0.556438486043404,0.683118811017864
"chr01_40810441",1,40810441,-0.354780067801244,0.548097815148409,0.51813262830965
"chr01_40875381",1,40875381,-1.19164153240413,0.402958237259225,0.00345103814718043
"chr01_40896801",1,40896801,-0.45925886432525,0.584646627008877,0.43300629243853
"chr01_4092932",1,4092932,-0.389833875543871,0.480614742835564,0.418196571554721
"chr01_40967765",1,40967765,4.10181724509494,2.90275286679219,0.159078751688177
"chr01_41079401",1,41079401,-0.830973351701459,0.71821089622524,0.248554311578633
"chr01_41086598",1,41086598,-0.922923614501769,0.665584832492087,0.166988995033421
"chr01_4111198",1,4111198,-0.999173421950672,0.887683733464653,0.26159139642191
"chr01_41128450",1,41128450,-0.333195826602378,0.708240557238239,0.638506356492115
"chr01_41191690",1,41191690,-0.326132014016395,0.48480411735604,0.501854907871438
"chr01_41246279",1,41246279,0.321826540315442,0.788800291060104,0.683683380561485
"chr01_41253714",1,41253714,-0.0450764231245557,1.09680178149768,0.967255862343577
"chr01_41355934",1,41355934,0.560203138738643,0.846308837003693,0.508720438697841
"chr01_41429103",1,41429103,-0.915231662453806,0.716031344769818,0.20255691902735
"chr01_41430806",1,41430806,-1.64549143788827,1.83613797980557,0.37116436633297
"chr01_41445901",1,41445901,-0.724333532449805,0.541332451281896,0.182291403085482
"chr01_41557103",1,41557103,6.48263391120781,2.93685304134386,0.0283477748947993
"chr01_41640775",1,41640775,0.797188687572088,0.844150483964484,0.346041674848256
"chr01_41729716",1,41729716,1.37217484829637,0.592878351177887,0.021588147877246
"chr01_41808553",1,41808553,-0.561723584445645,0.54779185222513,0.306311473633705
"chr01_41908221",1,41908221,0.444899065378706,0.578791316487931,0.442933228370506
"chr01_41925129",1,41925129,0.300595127958047,0.583818531744617,0.607167418501872
"chr01_41959255",1,41959255,-0.112358065942885,0.638654435347614,0.860515030577302
"chr01_42005457",1,42005457,-0.440280211019399,0.650115138120489,0.498985417622508
"chr01_42006955",1,42006955,0.465645869671448,0.471874041313344,0.324849320568375
"chr01_42038724",1,42038724,-0.438162092979269,0.660080849444754,0.507529095401097
"chr01_42055651",1,42055651,0.308652418873919,0.577681937096038,0.593689673984426
"chr01_42197194",1,42197194,0.73791019381656,0.777550774181464,0.343676631085554
"chr01_42345408",1,42345408,0.0218115570010013,0.717801958929579,0.975786924378923
"chr01_42354090",1,42354090,0.496449411627822,0.391136434520823,0.205724625623644
"chr01_42397090",1,42397090,0.418306298787172,0.477844667691748,0.382331989091381
"chr01_42424924",1,42424924,-0.212466361736745,0.517552791760253,0.681832517102007
"chr01_42524854",1,42524854,-0.412856534139962,0.524969870977306,0.432476567174428
"chr01_42571553",1,42571553,0.0320374857217303,0.685666656855047,0.962776112326092
"chr01_4285205",1,4285205,-0.468525975539308,0.551280005282206,0.396333054357626
"chr01_42982896",1,42982896,-0.0882417062593959,0.67611439167498,0.896282615180557
"chr01_42992528",1,42992528,-0.460216315654861,1.05907033385589,0.664326754827245
"chr01_4333551",1,4333551,-0.0428901491745819,0.624656074393432,0.945322463743147
"chr01_4351910",1,4351910,-0.163449739908629,0.650307945681135,0.80178972180047
"chr01_4407035",1,4407035,0.534230615509614,0.716229060546308,0.456546468975341
"chr01_4481952",1,4481952,0.72419270157036,0.609604745118283,0.23615554944109
"chr01_4524181",1,4524181,1.27876619621611,0.969125457279808,0.188403619494663
"chr01_4535419",1,4535419,0.0439513415426518,1.24729664079269,0.971923228495389
"chr01_456504",1,456504,-0.268086181756132,0.571289993027837,0.639356022584066
"chr01_4654718",1,4654718,-1.02677422534202,0.818819986883982,0.211215265329779
"chr01_4720163",1,4720163,1.12071177131543,0.705257703280919,0.113511473336534
"chr01_4838942",1,4838942,0.231960242678269,0.666483332873505,0.72815360912914
"chr01_4995141",1,4995141,0.969981320431884,0.50129610779704,0.0543087392356399
"chr01_5128216",1,5128216,-0.041862312140978,0.484827733762769,0.931272752302418
"chr01_516064",1,516064,-0.0901959548062905,0.772122318515019,0.907115203760354
"chr01_522058",1,522058,0.351660227517414,0.803372558978751,0.662021474783147
"chr01_5231305",1,5231305,0.264153630780925,0.682655788077448,0.699175982667984
"chr01_5234421",1,5234421,0.681833949150359,0.627613034306896,0.278521991755357
"chr01_5249098",1,5249098,0.374976070506733,0.416644545479537,0.369132318305155
"chr01_5345802",1,5345802,1.40495525271172,0.918462141819891,0.127565340005496
"chr01_5494271",1,5494271,0.458902736582104,0.660460612573181,0.487916892870369
"chr01_5501929",1,5501929,0.956218555530171,1.01926135346721,0.349220765937995
"chr01_553551",1,553551,0.657073504823984,0.861754028215877,0.446607001400606
"chr01_5546938",1,5546938,-0.25992779698845,0.769606234331402,0.735887688117531
"chr01_5562524",1,5562524,0.4044764307082,0.807882466904462,0.617120822200414
"chr01_5770140",1,5770140,-0.0925055548116234,0.889919327293789,0.917307318267442
"chr01_5793001",1,5793001,-0.425745736608974,0.630097727266894,0.499968622089853
"chr01_5835307",1,5835307,-0.49400623090628,0.68969102343685,0.474600810399617
"chr01_5844439",1,5844439,0.681226051326746,0.499777647718773,0.174289939736604
"chr01_5873105",1,5873105,0.514568318942793,0.863987384912178,0.552086335021307
"chr01_5883795",1,5883795,0.267155707763209,0.416597553753278,0.522023750766295
"chr01_5884298",1,5884298,-0.684195620572382,0.613012164888003,0.265616289674406
"chr01_5944498",1,5944498,1.38445595327744,0.952299629028372,0.147459118370788
"chr01_604888",1,604888,-0.103837233323986,0.536484719388243,0.846710084675511
"chr01_6095670",1,6095670,0.0171922201343477,0.60373600503058,0.977308615679713
"chr01_6096837",1,6096837,0.194176020761688,0.475780266422146,0.683590828264629
"chr01_6102028",1,6102028,-0.0304193082780557,0.48066991029707,0.949598169923893
"chr01_6117210",1,6117210,0.301887591882519,0.556933242229006,0.588343021423268
"chr01_6246086",1,6246086,0.00363714344371147,0.900209231177615,0.996780037233076
"chr01_6262934",1,6262934,-0.091732772447358,0.65399149578636,0.888581143688454
"chr01_6276937",1,6276937,0.993616469683047,0.845516247463846,0.241230693781759
"chr01_6294048",1,6294048,-0.0527206999214513,0.612360311327585,0.931471620010058
"chr01_6313064",1,6313064,1.02145831222947,0.978014104561891,0.297463585008411
"chr01_6404967",1,6404967,-0.748219738273065,0.832664710054966,0.36987915731128
"chr01_6453773",1,6453773,0.854573583813362,0.72766090037716,0.241529249632374
"chr01_6554090",1,6554090,0.542176061559985,0.598622715532027,0.366105449478391
"chr01_6660408",1,6660408,0.349906498855205,0.515432850579465,0.497956970045897
"chr01_6828184",1,6828184,0.63563624533333,0.573503178456004,0.268953516221567
"chr01_6874616",1,6874616,0.00905862352055919,0.559753327969558,0.987103212280849
"chr01_7203260",1,7203260,0.580742745438101,0.970378482467462,0.550156106404851
"chr01_7255296",1,7255296,0.167690173910842,1.01125801965629,0.86845180969626
"chr01_7282970",1,7282970,0.384663054755435,0.547412386192487,0.483006986622278
"chr01_7303615",1,7303615,0.458950246980862,0.538909313067394,0.395368175504463
"chr01_7304750",1,7304750,0.777893908533741,0.677050635960734,0.251855270707661
"chr01_779593",1,779593,0.116974562492032,0.735229114401819,0.873739857889952
"chr01_8073213",1,8073213,0.366865818504948,0.605218976273773,0.545041070258585
"chr01_8216215",1,8216215,0.289392373268555,0.567683153727601,0.610729892147767
"chr01_8248358",1,8248358,-0.114993854792601,0.645704438810266,0.858819553743614
"chr01_8267306",1,8267306,-0.224271738937887,0.959125655785977,0.815339951030859
"chr01_8296625",1,8296625,-0.49264764892132,0.94251929894643,0.601726542508704
"chr01_8378991",1,8378991,0.323786465172589,0.929091696995118,0.727807335157752
"chr01_8389758",1,8389758,0.383335620278672,0.724850202186054,0.597456389747795
"chr01_8527939",1,8527939,0.340192049474581,0.72903011420521,0.641232466405617
"chr01_8538266",1,8538266,-0.540491410605682,0.733588476195022,0.462060928285497
"chr01_8546808",1,8546808,0.386120220423436,0.927960466788357,0.677755130571838
"chr01_8613806",1,8613806,0.820830190353945,0.778003654972346,0.292588108695396
"chr01_8702552",1,8702552,-0.00604029130556683,0.519367095968694,0.990731516397467
"chr01_8743395",1,8743395,1.08473820145582,0.938975448086173,0.249276082875787
"chr01_8882297",1,8882297,0.384292931481554,0.436614680489823,0.379752724380471
"chr01_8980272",1,8980272,0.180151294846041,0.604280912527615,0.765895605266534
"chr01_9137148",1,9137148,-0.293228139079758,0.54951950285795,0.594163820591351
"chr01_9195612",1,9195612,0.0129464096675065,0.680252986510161,0.984833421431883
"chr01_9313131",1,9313131,-0.0193905464148543,0.498796945001933,0.969026416944877
"chr01_9477731",1,9477731,0.389075377107474,0.801391090723156,0.62781608249949
"chr01_9571473",1,9571473,0.0540490284839734,0.503988048902366,0.914696462899498
"chr01_962893",1,962893,1.55436250746385,0.991872313014753,0.118562063160766
"chr01_9631156",1,9631156,-1.24493203542397,0.965951774907378,0.198847834628008
"chr01_9650703",1,9650703,0.223903035454555,0.667967852919555,0.737800808613257
"chr01_9665027",1,9665027,0.0395489593482807,0.636121180445959,0.950483577205239
"chr01_9704967",1,9704967,0.646200879057005,0.976792416678429,0.508965495183744
"chr01_9706671",1,9706671,-0.373207535814345,0.638533474487113,0.559512855024587
"chr01_9707169",1,9707169,0.323502121377317,0.500861959015307,0.519038859398729
"chr01_9897499",1,9897499,1.65109791815348,0.913161020821178,0.0719863471617791
"chr02_10204193",2,10204193,0.554571783003212,0.829906825803064,0.504701113815584
"chr02_1020554",2,1020554,-0.231057094731113,0.695836841205061,0.740170140501684
"chr02_1029286",2,1029286,-1.15354999128613,1.10843146357043,0.299181432720308
"chr02_1032529",2,1032529,-0.180335297938484,0.589586066898655,0.760001382979956
"chr02_10423338",2,10423338,0.853045005474769,0.876744597171511,0.331662260868282
"chr02_10468303",2,10468303,0.829871651209487,0.973281009497805,0.394800214913749
"chr02_10536514",2,10536514,1.18372488618411,0.865891904609605,0.173034598708922
"chr02_10826668",2,10826668,0.096271182403143,0.666747668533503,0.885328375801982
"chr02_10829778",2,10829778,0.618072028758377,0.640998793596139,0.336012524107698
"chr02_10833700",2,10833700,0.620264720714658,0.657021935927923,0.346201306505325
"chr02_10948519",2,10948519,-0.179852164797722,0.435169448488387,0.679804410119788
"chr02_11019461",2,11019461,0.749528001062686,0.732565397883084,0.307384367031622
"chr02_11433688",2,11433688,-0.429696505817446,0.901055946625214,0.633931170044308
"chr02_11592692",2,11592692,-0.028812467178426,0.591719401184965,0.961209326454604
"chr02_11603656",2,11603656,-0.395040590625285,0.913375942329485,0.665807181802776
"chr02_11716701",2,11716701,-0.0979948693433244,0.5044146083629,0.846144430827349
"chr02_11800780",2,11800780,0.211341732752089,0.559213502035199,0.705857868493224
"chr02_11864613",2,11864613,0.130869062915849,0.528481828452721,0.804655402306069
"chr02_11935491",2,11935491,1.08378133436509,0.864409923958687,0.211282936107509
"chr02_12021794",2,12021794,1.57531509686328,1.06837917552778,0.141812296128342
"chr02_12083669",2,12083669,0.243424493732618,0.92191242785592,0.791999727127576
"chr02_12155439",2,12155439,0.484299786431734,0.656108926085853,0.461234723575558
"chr02_12180748",2,12180748,-0.0151244373429336,0.456610095945225,0.973606984732629
"chr02_1219335",2,1219335,-0.0677122532811154,0.897198493777905,0.939910337404734
"chr02_12215178",2,12215178,0.38976860385344,0.660901620415604,0.555975626548237
"chr02_12290376",2,12290376,0.0811171591359425,0.622386623340071,0.896425286564698
"chr02_12425081",2,12425081,0.222412209591766,0.781214027098649,0.776147461253434
"chr02_12569374",2,12569374,-0.132003303008787,0.767844204619268,0.863666708226868
"chr02_12622691",2,12622691,0.32279318603787,0.830195540086008,0.697797154350902
"chr02_12719891",2,12719891,0.1943790936607,0.90745414544939,0.830592033128825
"chr02_12764932",2,12764932,-1.64941654166614,1.82350032440705,0.366725186295663
"chr02_12788719",2,12788719,0.0613959026039197,0.61473099381129,0.920537087839675
"chr02_12790548",2,12790548,0.958660338954132,0.95830898245422,0.318257654360907
"chr02_12824996",2,12824996,-0.0399450490550635,0.58289638038191,0.94542857693918
"chr02_12884895",2,12884895,-1.11902765179263,0.567786884552324,0.0500231068022384
"chr02_12935999",2,12935999,0.376692684477689,0.427020203862735,0.378684913720438
"chr02_12960918",2,12960918,-0.467219947357535,0.954678084770902,0.62505709744924
"chr02_13029494",2,13029494,-0.583128197473343,0.609552477920507,0.339818539558652
"chr02_13166283",2,13166283,0.532223590469584,0.848285008167515,0.531055420130319
"chr02_13209740",2,13209740,0.925469223482253,0.526753599732837,0.0803531982504903
"chr02_1322196",2,1322196,0.00133937884220359,0.737362588153404,0.998552371364966
"chr02_13428569",2,13428569,-0.248380978483738,0.899977762378244,0.782824155606233
"chr02_13434664",2,13434664,0.355038742207171,0.83272299537308,0.670273013882443
"chr02_13505818",2,13505818,-0.0849036318834351,0.62927060834337,0.892798286728398
"chr02_1356569",2,1356569,-0.296007052189083,0.464250314958647,0.524411050605257
"chr02_13575558",2,13575558,-0.117144413725327,0.734345984644347,0.873407306326883
"chr02_13651123",2,13651123,-0.580562562613352,0.602884226753221,0.336641780774093
"chr02_13719895",2,13719895,0.466412970802253,0.520075328005621,0.370819065714981
"chr02_13912154",2,13912154,0.252731485089271,0.642724804674967,0.69454750512343
"chr02_13924381",2,13924381,0.214753543154075,0.807042330733827,0.790417604841043
"chr02_13941423",2,13941423,0.389430326625074,0.601073030209088,0.517746160373391
"chr02_13960663",2,13960663,0.218778560008445,0.526916942405607,0.678405871629252
"chr02_14028135",2,14028135,0.255404138467952,0.548716412421112,0.642075032854388
"chr02_14056209",2,14056209,1.22633066911499,0.943156518201603,0.194910527575553
"chr02_14086732",2,14086732,-0.324932894412768,0.752461479296092,0.666300167063097
"chr02_142151",2,142151,-0.0545575561089322,0.477480592897442,0.909137285774003
"chr02_14377163",2,14377163,0.266298317511882,0.640205144357706,0.677855779993021
"chr02_14413082",2,14413082,-0.572737981277811,0.452349321019675,0.206832782198695
"chr02_14429118",2,14429118,-0.474217588376121,0.579010373935701,0.413685341707453
"chr02_14602714",2,14602714,-1.67409330083387,0.916054832412974,0.0690102589093358
"chr02_14713817",2,14713817,-0.94367539242694,0.939560940440954,0.316324953054401
"chr02_14743478",2,14743478,0.0238741438470953,0.382455244514368,0.950283680759215
"chr02_14785055",2,14785055,0.589958353999634,0.788733883958387,0.455288686133025
"chr02_14805577",2,14805577,0.0189713593476313,0.51549826648419,0.970677038490651
"chr02_14809405",2,14809405,0.572660374976635,0.571972705136542,0.317854510996833
"chr02_14884319",2,14884319,-0.451317758007349,0.647783688787871,0.486736506916781
"chr02_14939638",2,14939638,0.121212564225004,0.517504266680166,0.815033007940614
"chr02_14956184",2,14956184,0.662536427311636,0.503953666822125,0.190019028679678
"chr02_15001953",2,15001953,-0.175336555293768,0.547886391643027,0.749261249381539
"chr02_15060273",2,15060273,0.31830280503425,0.565857796245531,0.574352060436655
"chr02_15091010",2,15091010,-0.272574041831774,0.455749187468937,0.550416672056939
"chr02_15125442",2,15125442,-0.321436722873131,0.468354040462147,0.493256227451965
"chr02_15224300",2,15224300,-0.00764452132702331,0.455995689777476,0.986640069722762
"chr02_1535366",2,1535366,-0.0817495390504064,0.939424794553284,0.930735935265947
"chr02_15367854",2,15367854,-0.606957030708827,0.487258136788762,0.214245712611001
"chr02_15490919",2,15490919,0.358759130830776,0.627283816293575,0.567970439374966
"chr02_15523158",2,15523158,-1.34092832115653,0.925664911383496,0.148903100966107
"chr02_1552778",2,1552778,0.044382986627852,0.854964320869713,0.958646938246148
"chr02_1568988",2,1568988,-0.100107897725309,0.673027639923713,0.881896143533234
"chr02_15817322",2,15817322,-1.03785143803998,1.03965752381622,0.319274120327532
"chr02_15848014",2,15848014,0.152265393609724,0.805935131638748,0.850325835765949
"chr02_15908191",2,15908191,-0.383300646927694,0.780262983295073,0.623753935155636
"chr02_16034135",2,16034135,0.167904095270842,0.761324247682679,0.825658223529844
"chr02_16185840",2,16185840,0.359500662091435,0.526840266229752,0.495738730230612
"chr02_16236506",2,16236506,0.757293947483504,0.835977194665138,0.366014114436089
"chr02_16240125",2,16240125,-0.501580350316942,0.983974103479052,0.610749785226021
"chr02_16321305",2,16321305,-0.0826617902451972,0.710304240513799,0.907463827382252
"chr02_16340131",2,16340131,-0.0816098805319143,0.848243402400096,0.923443049341708
"chr02_16427765",2,16427765,1.2080623880961,0.7982845095583,0.131666197564915
"chr02_16523891",2,16523891,-0.19944606432,0.738849649455823,0.787464302975557
"chr02_16547978",2,16547978,0.465995010662255,0.642336776639648,0.468953644813468
"chr02_16565549",2,16565549,0.00438817620602094,0.837371641681073,0.995823630822626
"chr02_16590252",2,16590252,0.270954676147312,1.05130519691882,0.796860497170395
"chr02_166287",2,166287,-0.0793733741013511,0.742028629698003,0.914914053040991
"chr02_16648949",2,16648949,1.16380043296689,0.966216970445464,0.229723799634169
"chr02_16741915",2,16741915,0.907802902008598,0.885213360392005,0.306270903098643
"chr02_16891410",2,16891410,0.588582595444905,0.744070180990791,0.429797627017905
"chr02_16944434",2,16944434,0.039704695898763,0.991485452776955,0.96809388004179
"chr02_16970367",2,16970367,0.157990937254226,0.575796913159925,0.784051024709111
"chr02_17026592",2,17026592,-1.04533909808004,0.588597964823966,0.0771503282511757
"chr02_17161440",2,17161440,0.0900712858903034,0.532746577204431,0.865900801940907
"chr02_17222131",2,17222131,1.00709083799813,0.702150947115777,0.152941266514578
"chr02_17275936",2,17275936,-0.0410776688788701,0.861416959913689,0.962010628713929
"chr02_17311395",2,17311395,1.42803793438185,0.879014914064211,0.105715234427985
"chr02_1734469",2,1734469,0.129055393598946,0.826197073007926,0.87601869336795
"chr02_17354391",2,17354391,-0.715086693109924,0.787908577467085,0.365118542003869
"chr02_17365858",2,17365858,-0.981037329283481,1.01639515866338,0.335522790574157
"chr02_17505735",2,17505735,0.0394938702363561,0.595091201345635,0.947148046534243
"chr02_1760077",2,1760077,-0.169562875988504,0.620720314817848,0.784983879839704
"chr02_17699410",2,17699410,-0.728766630859809,0.856920501347836,0.396021966310511
"chr02_177081",2,177081,0.159928160032905,0.833586487019402,0.848036464350334
"chr02_17741343",2,17741343,0.345659903083003,0.619782480034323,0.577621530942794
"chr02_17781109",2,17781109,0.523984451241631,0.758360348813564,0.490346110418489
"chr02_17793194",2,17793194,-0.783568498935409,0.515505564620471,0.129980177378097
"chr02_18019350",2,18019350,-0.0635796989869277,0.57003018035875,0.911294246867755
"chr02_18068311",2,18068311,-0.0897688527182368,0.560915539338482,0.872999919805463
"chr02_18175476",2,18175476,-1.28766394019351,0.791050077851821,0.105033805661781
"chr02_18235382",2,18235382,-0.767522568713161,0.632013119698706,0.225923645218366
"chr02_18252614",2,18252614,-0.940502452069722,0.823159374760242,0.254495359561726
"chr02_18322358",2,18322358,-0.908125837659099,1.0703495785927,0.397137394638897
"chr02_18352851",2,18352851,-0.0258017702261668,0.50860374824115,0.959587296899168
"chr02_18456387",2,18456387,-0.890475979764517,0.491863877272807,0.0716280811122213
"chr02_18502876",2,18502876,-0.0281721452688544,0.724114272523147,0.969001703974467
"chr02_1853394",2,1853394,-0.203535170619318,0.662873492915195,0.759102659394727
"chr02_18584457",2,18584457,0.161333364984102,1.02899869241229,0.875560042473268
"chr02_18680597",2,18680597,0.880005098365473,0.670721285561258,0.190909798314871
"chr02_18750492",2,18750492,0.692140268312983,0.634031717551504,0.276209086399217
"chr02_18903337",2,18903337,-0.39921452374017,0.818027720364225,0.626032438827349
"chr02_18909029",2,18909029,0.361443785000347,0.608500380792321,0.553142553673782
"chr02_18923219",2,18923219,-0.196713963407774,0.932115569599328,0.833055705982121
"chr02_18987156",2,18987156,0.162493094778199,0.557722892093843,0.771063815136453
"chr02_18999400",2,18999400,-0.0760857239487791,0.464870773784489,0.870144137052017
"chr02_19000375",2,19000375,-0.282806688102937,0.589443927563998,0.631867595162261
"chr02_19200792",2,19200792,0.323937704460377,0.87660033598872,0.712089981608625
"chr02_19428471",2,19428471,0.0808580604251574,0.549578391665707,0.883169306092368
"chr02_19584506",2,19584506,0.199813730712748,0.411825223438999,0.628035154604093
"chr02_19594448",2,19594448,-0.99433093630995,0.528488750610632,0.0612605408199293
"chr02_19959035",2,19959035,0.453066645292211,1.36681823816512,0.740608279656947
"chr02_2002257",2,2002257,-0.326716676896922,0.518876686638194,0.529584618557241
"chr02_20093736",2,20093736,0.992956625811189,0.570036431608998,0.082952930697709
"chr02_20127151",2,20127151,0.0618060445090691,0.673312939503369,0.926947232683603
"chr02_20175995",2,20175995,0.814266288172576,0.608870539627658,0.182525107485399
"chr02_20199528",2,20199528,0.672062677623558,0.650207810958349,0.302478756683487
"chr02_20224634",2,20224634,-0.0871454257281812,0.71844352363969,0.903568663767158
"chr02_20332317",2,20332317,-0.328868402497619,0.698977843590751,0.63847547081686
"chr02_2049709",2,2049709,-0.0206818213112001,0.440285788405325,0.962577848574976
"chr02_2083282",2,2083282,-0.630189537293774,0.488753328103799,0.198650849379698
"chr02_20920942",2,20920942,0.120855906819799,0.473265932688828,0.798684751954149
"chr02_2100813",2,2100813,1.6969333517734,0.843531247445618,0.0454994790087377
"chr02_210544",2,210544,0.452008463486038,0.60476783782949,0.455633819799029
"chr02_2115821",2,2115821,-2.1429041606425,1.88484746913982,0.256840950438695
"chr02_21196336",2,21196336,-0.304610495537645,0.656151576691119,0.64294696014915
"chr02_2129727",2,2129727,-0.7389571059025,0.815183172958665,0.365690249477483
"chr02_2160557",2,2160557,-0.835899144247605,0.786496162993269,0.289058596492619
"chr02_21742152",2,21742152,-0.396302197482328,0.699829450870249,0.571791372585357
"chr02_22050806",2,22050806,0.509149970740793,0.552834388531789,0.358092583948731
"chr02_22104241",2,22104241,-0.202335046531289,0.603635736629215,0.737805604276807
"chr02_22161493",2,22161493,0.197592751012053,0.882030941359782,0.822954314982976
"chr02_22380151",2,22380151,0.442476565758199,0.467076274475866,0.344532868670136
"chr02_22427703",2,22427703,-0.6252232690033,0.711482611830258,0.380511838910945
"chr02_22662673",2,22662673,0.794385123071152,0.678967272374797,0.243300187595503
"chr02_2274960",2,2274960,-0.149723223932511,0.678876434969465,0.825655534227684
"chr02_22781213",2,22781213,-0.74286025613344,0.565844160278374,0.190637986616351
"chr02_22891824",2,22891824,-0.319762796769453,0.590551714828994,0.588748087909573
"chr02_22896187",2,22896187,-0.351356160072669,0.578132916304766,0.543999415728386
"chr02_23064125",2,23064125,0.214425431820928,0.668793553811647,0.748813361199312
"chr02_23170351",2,23170351,0.508301771932224,0.686957606414708,0.460148572453894
"chr02_23200488",2,23200488,0.196125659152244,0.656815563702521,0.765533045400049
"chr02_23247697",2,23247697,0.95063486263291,0.775351295036737,0.221513575210307
"chr02_23322302",2,23322302,0.0417205874691717,0.952035311788552,0.965086547638719
"chr02_23459514",2,23459514,-0.828077011389155,0.726323901900189,0.255515915093003
"chr02_23576588",2,23576588,-0.148975566374929,0.475780676753712,0.754494431272999
"chr02_23618262",2,23618262,0.803787282769349,0.754641040281047,0.288013923620968
"chr02_23646686",2,23646686,0.416904601424562,0.767706471749862,0.587656484548512
"chr02_23651050",2,23651050,0.311441250449775,0.776692230121569,0.688830030515317
"chr02_2375777",2,2375777,-0.0316508022278867,1.12670053413572,0.977615164382074
"chr02_23857770",2,23857770,1.34751267230513,0.896085061386688,0.134106129662016
"chr02_23902816",2,23902816,-0.0445179912105118,0.726306292692184,0.951182257427757
"chr02_23910829",2,23910829,-0.586083229568999,0.673239546039168,0.384975273983579
"chr02_24011449",2,24011449,0.39038383895695,0.854637242657172,0.648288112740452
"chr02_24011462",2,24011462,-0.0586321481409868,0.833200720260649,0.943964756574279
"chr02_24172657",2,24172657,-0.464745316738458,0.761448453481281,0.542278715676001
"chr02_24186238",2,24186238,0.489508622636549,0.431098595211672,0.257433815878724
"chr02_24201150",2,24201150,-0.49015613293318,0.858786636827559,0.568762280373483
"chr02_24204236",2,24204236,-0.215220541706231,0.845458912935418,0.799305793022558
"chr02_24233440",2,24233440,-0.189409831172554,0.587757700474399,0.747570111369828
"chr02_24321935",2,24321935,0.464538401642926,0.683596745989116,0.497520186297157
"chr02_24355987",2,24355987,-0.419839238089253,0.645566208555588,0.516165244712634
"chr02_24398258",2,24398258,-0.284826068644861,0.778502713798819,0.714826331378358
"chr02_24443818",2,24443818,-0.0908288019326164,0.731950505981923,0.901358801580481
"chr02_24546131",2,24546131,0.269596706384419,0.581583604247285,0.643434651516409
"chr02_24603906",2,24603906,0.878899912157067,3.31861692814411,0.791387050332507
"chr02_24624871",2,24624871,-0.231294160779498,0.718623580587718,0.747873603261221
"chr02_24753370",2,24753370,-0.381860060553322,0.77037928499913,0.620627891233852
"chr02_248069",2,248069,0.484608198022102,0.983799314587459,0.622806053929358
"chr02_24877438",2,24877438,0.475704324539265,0.90881150542344,0.601210213926588
"chr02_24889710",2,24889710,-0.171800451512809,0.762496829815086,0.821949799961128
"chr02_24980369",2,24980369,-0.768287982853735,0.837214661904629,0.359819175943644
"chr02_25108462",2,25108462,0.107414483837147,0.618918158850015,0.862380848309462
"chr02_25115531",2,25115531,-0.491891135853962,0.753462132148952,0.514556103346143
"chr02_2517794",2,2517794,-0.693811740480214,0.702777574212274,0.324633590656947
"chr02_2528212",2,2528212,0.272535398961054,0.519995830336341,0.60074140366373
"chr02_2529714",2,2529714,0.571810842002719,0.680296696632978,0.401544193939752
"chr02_25505386",2,25505386,0.170353021288065,0.876529717263523,0.846085822017441
"chr02_25537867",2,25537867,0.00419709479280073,0.567882010262614,0.994109912255333
"chr02_25647786",2,25647786,-0.608207183201671,0.768977043064769,0.429856322295318
"chr02_25723636",2,25723636,1.26078135880198,0.807026145131881,0.119698425365168
"chr02_25728445",2,25728445,0.871784531365165,0.987994951040468,0.378558157675333
"chr02_25868843",2,25868843,0.751572705904778,0.771822172684964,0.331267985744171
"chr02_25893021",2,25893021,-0.0790133650677376,0.561035427759088,0.88813223747037
"chr02_25909477",2,25909477,0.627128281470505,0.630697727135014,0.321174894479726
"chr02_25998276",2,25998276,-0.330411291139171,0.569282733180419,0.562253197075546
"chr02_26027428",2,26027428,0.539927391749416,0.884956057755315,0.542428140303241
"chr02_26037143",2,26037143,0.462407157200403,0.563624835632125,0.412887328372815
"chr02_26097950",2,26097950,0.44096453517443,0.679152531645267,0.516846253827254
"chr02_2610832",2,2610832,-0.0585381049422722,0.788928772171506,0.940920647781543
"chr02_2622496",2,2622496,0.12653540500213,0.592352024062896,0.831049566321736
"chr02_26279470",2,26279470,0.169004366134203,0.59207471056262,0.775578553662642
"chr02_26283613",2,26283613,0.48136044426451,0.605171457183244,0.427251324239369
"chr02_26291833",2,26291833,-0.204244523237378,0.59172124113213,0.730303891087108
"chr02_26453127",2,26453127,-0.704371407057579,0.740573261905751,0.342613239957885
"chr02_26497434",2,26497434,0.907004869295633,0.880912346798969,0.304345371486098
"chr02_26517451",2,26517451,-0.911732733999088,0.831799217933112,0.274262512729265
"chr02_26599767",2,26599767,-1.09717679257892,0.582319608121192,0.0608942777544757
"chr02_26770485",2,26770485,0.125072129848945,0.711241686307356,0.860576993585467
"chr02_26789667",2,26789667,-0.685102315122435,0.7098738491282,0.335576852013229
"chr02_26814621",2,26814621,-0.855906224153102,0.496377035773991,0.0860897950766716
"chr02_26821182",2,26821182,-0.0831223004687445,0.771411727739011,0.914291729992053
"chr02_26873332",2,26873332,-0.332936808159104,0.557285654852745,0.550851837953271
"chr02_26943646",2,26943646,-0.291789486414928,0.83142966776279,0.725970181932776
"chr02_27034226",2,27034226,-0.120706549092176,0.490207522135408,0.805734772853802
"chr02_27180476",2,27180476,-0.623863234877888,0.566002340134462,0.271595176284843
"chr02_272963",2,272963,-0.487785095799779,0.527407329046164,0.35606857642173
"chr02_273607",2,273607,0.297268762846329,0.640151186788404,0.642850591283256
"chr02_27373560",2,27373560,-0.22006412068751,0.497494429122588,0.658684306455065
"chr02_27426218",2,27426218,0.814542348820737,0.712650812438273,0.254319939685198
"chr02_27597589",2,27597589,0.512066897849053,0.435960583442689,0.241465457449314
"chr02_27616801",2,27616801,0.171786771919642,0.614691658176827,0.780154199278081
"chr02_2766556",2,2766556,-0.428518552750802,0.562319165814639,0.446861897278877
"chr02_27818004",2,27818004,-0.0767368337606626,0.545738337177612,0.888308875892737
"chr02_27834279",2,27834279,1.06868874152929,0.530675286322664,0.0452738211301598
"chr02_27837971",2,27837971,-0.739318825835767,0.480944077535997,0.125708792184606
"chr02_27846806",2,27846806,-0.579931263157619,0.618679286666282,0.349620149512829
"chr02_27885960",2,27885960,-0.269619788008924,0.663465464741943,0.684866852813123
"chr02_27977720",2,27977720,0.0380684841182983,0.592889682615163,0.948863965667658
"chr02_28010163",2,28010163,0.29294529356352,0.542052530877255,0.589455036862616
"chr02_28038349",2,28038349,1.14682774305976,0.632145057422727,0.071043257532527
"chr02_28040606",2,28040606,0.432911344787499,0.988963542153955,0.662012408999659
"chr02_28069534",2,28069534,0.71584673719326,0.648090745414485,0.27059048999357
"chr02_28214696",2,28214696,-0.579458797230018,0.696520929258867,0.406369781150779
"chr02_2825165",2,2825165,0.541897767269916,0.570821683844315,0.343519014544593
"chr02_2830553",2,2830553,-0.704266155504911,0.638690996839065,0.271402736728721
"chr02_28343019",2,28343019,0.640633744549859,0.626666707445156,0.307793578030363
"chr02_28355115",2,28355115,1.04533285512832,0.735810435518173,0.156865665794705
"chr02_28355723",2,28355723,0.277614863801091,0.773861910575906,0.720141970254259
"chr02_2839068",2,2839068,0.75421584111325,0.60700704392412,0.215399791190186
"chr02_2860299",2,2860299,-0.65712392917726,0.754946893551545,0.385039504826786
"chr02_28614520",2,28614520,-1.02223519632003,0.556425624037732,0.0675686182107926
"chr02_28687000",2,28687000,-0.0273126912317139,0.824487626372112,0.97360415148111
"chr02_28689273",2,28689273,0.153661085074759,0.52848596960358,0.771517321966629
"chr02_28694566",2,28694566,0.613129793857297,0.664896215946929,0.357487306332034
"chr02_2877410",2,2877410,-0.32802122071223,0.583123439310862,0.574344768785875
"chr02_28805611",2,28805611,0.524101339888148,2.60946717994338,0.841008775803421
"chr02_28908316",2,28908316,-1.73048199396294,0.830268651858478,0.0383192737066073
"chr02_28950389",2,28950389,0.317681228977108,1.10734375755853,0.774476028546167
"chr02_2898187",2,2898187,0.926001248718876,1.40367049180069,0.510152488304987
"chr02_29100617",2,29100617,-0.0863707076529749,0.459202637445059,0.850984725561276
"chr02_29108036",2,29108036,0.0852156106675466,0.583512767395721,0.884027446537879
"chr02_2928214",2,2928214,0.118762178858503,0.510723030447181,0.816341890022004
"chr02_29300692",2,29300692,-1.49466051166621,0.757505395002208,0.0497613296388652
"chr02_29327270",2,29327270,-0.764005270296991,0.614140404700465,0.214845383646316
"chr02_2948360",2,2948360,0.743565019972493,1.10105516834041,0.500197869170555
"chr02_29579374",2,29579374,-0.487124881302634,0.700636350778094,0.487642723110547
"chr02_29721290",2,29721290,-0.883409597388095,0.860435584320457,0.305715252421455
"chr02_29767497",2,29767497,0.899735516979263,0.875109486455372,0.305039019147607
"chr02_29912721",2,29912721,-0.406553797903939,0.653818783825038,0.534722857466242
"chr02_30041740",2,30041740,0.808082206305698,4.22592701807455,0.848533608953315
"chr02_3009020",2,3009020,-0.192961540815872,0.588581336055618,0.743350337627441
"chr02_30166081",2,30166081,-0.69149852028545,0.679949209694751,0.31030335323313
"chr02_30223258",2,30223258,1.45688321719103,0.853059432348216,0.0891107134100705
"chr02_30271120",2,30271120,0.14569638699777,1.53602017361816,0.924519794816675
"chr02_30331621",2,30331621,0.3033253644669,0.846945745803136,0.720589732082536
"chr02_3034700",2,3034700,-0.211641990097405,1.16571174521617,0.856102211041419
"chr02_30404145",2,30404145,-2.10220029094398,2.21410544144265,0.343453710769022
"chr02_30636799",2,30636799,-0.63247779440853,0.415482519493628,0.129410118650293
"chr02_30649960",2,30649960,-0.768208685965419,0.645782602713523,0.235524373317257
"chr02_30666300",2,30666300,-0.185490423029535,0.671369075025971,0.782593184512195
"chr02_30667031",2,30667031,-0.348747645064975,0.586248092125837,0.552548806441373
"chr02_30692422",2,30692422,-0.959669556816152,0.634681077131129,0.131989586283161
"chr02_30701370",2,30701370,-0.121610654401138,0.733990649186749,0.868561171007237
"chr02_30756490",2,30756490,-0.536565100628195,0.635107657959948,0.399138661631835
"chr02_30789963",2,30789963,-0.085667935379206,0.848981429370755,0.919718540909441
"chr02_30870611",2,30870611,-1.00183221149604,0.46198102458848,0.0312138720063001
"chr02_3105367",2,3105367,0.968923541654817,0.729607970945832,0.185584324312897
"chr02_31056061",2,31056061,0.747243177200147,0.563224821575327,0.186007815045383
"chr02_31097812",2,31097812,1.6032010024735,0.933361289496307,0.087297770187487
"chr02_31098785",2,31098785,0.0670325534986205,0.722011881854865,0.926116058689257
"chr02_3115657",2,3115657,-0.212491963259083,0.474336920813045,0.65462097255269
"chr02_31287673",2,31287673,0.159922319281918,0.616111623897145,0.795446079065868
"chr02_31290996",2,31290996,-0.0540805955415351,0.52236324155963,0.917638347467486
"chr02_31311006",2,31311006,-0.497899354386732,0.734932665090507,0.498832251040586
"chr02_31313265",2,31313265,0.431936107310662,0.746211553732465,0.563303935815913
"chr02_31383462",2,31383462,-1.15648040535075,0.808732934972931,0.15417132067845
"chr02_31449850",2,31449850,0.164154015119493,1.67418731591581,0.921983963061079
"chr02_3151030",2,3151030,-0.812050135839627,0.797807389911123,0.309892129114378
"chr02_31511825",2,31511825,1.29046468910633,0.895532661411547,0.151038800098166
"chr02_31765419",2,31765419,-0.208050277875998,0.637130976443875,0.744331668768785
"chr02_31798840",2,31798840,-0.32699114951356,0.733914432904215,0.656374991631693
"chr02_31808231",2,31808231,0.92492979040162,0.784922902210563,0.239951585086232
"chr02_31832663",2,31832663,-0.169877866817842,0.71626201146109,0.812748573322315
"chr02_31868120",2,31868120,-0.810718298964957,0.911789480739201,0.374915813529156
"chr02_3193505",2,3193505,0.787694196908518,0.78531153518795,0.316971978985961
"chr02_32014643",2,32014643,-0.52483480425019,0.794229430375856,0.509441557928498
"chr02_32402030",2,32402030,0.221956199395663,1.27766551889971,0.862248881830501
"chr02_32405101",2,32405101,-0.0176504571952592,1.23311365670247,0.988592958468872
"chr02_32424504",2,32424504,-0.369938745302989,0.874918075171125,0.672844278893242
"chr02_32487257",2,32487257,0.406165561831131,1.01020722385735,0.688038080840544
"chr02_32605634",2,32605634,1.82226265486861,0.8305926523025,0.0293118160468504
"chr02_3264965",2,3264965,-0.919378461626707,0.589857681116487,0.12055128326543
"chr02_32833978",2,32833978,1.22100468242115,0.628209576897957,0.053245639695324
"chr02_33091358",2,33091358,-0.0825081718859337,0.669795133795006,0.902076319937108
"chr02_33098081",2,33098081,-0.591637931847117,0.89082490809251,0.507308391266951
"chr02_33116482",2,33116482,0.578443820252915,0.969132463911069,0.551223739398706
"chr02_33116794",2,33116794,0.53094767206602,0.564990702079157,0.348402515556794
"chr02_33150970",2,33150970,0.899249830344957,0.437395095884367,0.0409981231097158
"chr02_3315577",2,3315577,-0.295364350910745,0.756678778766633,0.696669307382759
"chr02_33277731",2,33277731,-1.28920428714002,0.626759356324049,0.0408993811783583
"chr02_33282003",2,33282003,0.624013536918255,1.03582709295883,0.54752264479278
"chr02_3343107",2,3343107,-0.952569607390842,0.888042364109075,0.284625146649009
"chr02_33457715",2,33457715,-0.645901557778757,0.549784673552561,0.241363675220371
"chr02_33465368",2,33465368,0.475958947972003,0.673265575630366,0.480368716154856
"chr02_33491633",2,33491633,-0.269872677524063,1.12718342800157,0.811006345057499
"chr02_33512686",2,33512686,-0.173214828861433,0.688662123517749,0.801649506532171
"chr02_33631144",2,33631144,0.302180512584215,0.529665193521577,0.568926030807134
"chr02_33728376",2,33728376,-0.414478191395943,0.641809222415439,0.519099763360817
"chr02_33831248",2,33831248,-1.16869070333041,0.930553683627176,0.210512050124681
"chr02_33879474",2,33879474,-0.461147554163063,0.62709890994392,0.462917710726427
"chr02_33956674",2,33956674,0.441062294469845,0.486185837281831,0.365322668257906
"chr02_33961766",2,33961766,0.302253311407469,0.697532081353222,0.665218073764378
"chr02_34112789",2,34112789,1.34011832279339,0.933843453215568,0.15272402294304
"chr02_34228354",2,34228354,-0.484800874827499,0.502428900831942,0.33567176075703
"chr02_34247407",2,34247407,-0.693033643166018,0.574321436175109,0.228873753060077
"chr02_34325507",2,34325507,-0.224739895438688,0.985988711124341,0.819914530545471
"chr02_34326757",2,34326757,-0.164876804148264,0.632929192234817,0.794728959246337
"chr02_34349765",2,34349765,-0.702806484792177,0.66015585917016,0.288248017862705
"chr02_34416047",2,34416047,-0.807786565808613,0.593499622226122,0.174920665918118
"chr02_34440763",2,34440763,0.632876338462665,0.697625320135692,0.365323775421132
"chr02_34441906",2,34441906,-0.721432929347202,0.888264775200237,0.417585369724631
"chr02_34445901",2,34445901,-0.7824486866798,0.901706388319638,0.386502968399331
"chr02_34447075",2,34447075,-0.602581653776951,0.842430117906937,0.475206035937675
"chr02_34482887",2,34482887,0.896016563222929,0.882564191791906,0.311131430992497
"chr02_34544695",2,34544695,-0.237259838468304,0.508250908556779,0.64110396539186
"chr02_3463205",2,3463205,0.40616040282498,0.627459208209814,0.518122095242487
"chr02_34677233",2,34677233,1.26760353971031,0.910224608862906,0.165171047349837
"chr02_34900196",2,34900196,-0.99515505882141,0.840039924451444,0.237462916432484
"chr02_34904613",2,34904613,-0.793706312613949,0.899051182237822,0.378315975111365
"chr02_35131427",2,35131427,0.760184774684149,0.612503156512009,0.215916971959144
"chr02_35134360",2,35134360,0.267024002963069,0.505149841627113,0.597625732298725
"chr02_35200518",2,35200518,0.439649264533827,0.783370729109933,0.575226878670378
"chr02_35316566",2,35316566,-0.682787784360073,0.745109104207123,0.36050508061634
"chr02_35342322",2,35342322,-0.5776403325724,0.425173071852908,0.175696925589253
"chr02_35385043",2,35385043,-0.460539826984188,0.755782919498175,0.5429327818421
"chr02_354089",2,354089,-1.25227470005757,1.1023306833162,0.25721100498046
"chr02_35443672",2,35443672,0.198031835782558,0.66386826409723,0.765762367367261
"chr02_35460118",2,35460118,-0.206218157563285,0.789295923103246,0.794135562135351
"chr02_35528220",2,35528220,-0.414362529416621,0.544185027913032,0.447230571547802
"chr02_35682061",2,35682061,2.17551992778772,0.955430879555319,0.0237699254567296
"chr02_3585514",2,3585514,0.0148638862197004,0.627915856239261,0.981136371056384
"chr02_35888435",2,35888435,0.0155218392981169,0.873708196904308,0.985842424321986
"chr02_35922034",2,35922034,0.544853066313749,0.681158122284766,0.424656153654028
"chr02_36127767",2,36127767,0.509506189739739,0.566737605990856,0.369649875222238
"chr02_3617319",2,3617319,-0.159714927932896,0.633467603942382,0.801182974848257
"chr02_36238278",2,36238278,0.597444797300795,0.764578191086086,0.435424258055146
"chr02_36464622",2,36464622,-0.571405045543543,0.698456237638332,0.414207478916
"chr02_36493661",2,36493661,0.820669845220209,0.763215701251381,0.283455015445843
"chr02_36598084",2,36598084,-0.358706398812188,0.583825062085492,0.539595820648391
"chr02_36624543",2,36624543,-0.482218135630916,0.569054422573219,0.397713139297583
"chr02_36653635",2,36653635,-0.225954926034035,0.586534531199645,0.700442527090645
"chr02_36728662",2,36728662,0.483311018009431,0.727053490217436,0.506920839295229
"chr02_36734552",2,36734552,-1.03651103451347,0.734681925685477,0.159740134387784
"chr02_36818675",2,36818675,0.0618389793944516,0.576317748331477,0.914650926836062
"chr02_36955530",2,36955530,1.96220836600401,0.956043204741991,0.0413394885883179
"chr02_36970778",2,36970778,1.41872962037928,0.82664948325657,0.0875583334271146
"chr02_3698491",2,3698491,-0.565383175501438,0.60583702833321,0.351749880258591
"chr02_37008483",2,37008483,-0.0813059375869045,0.640755398195698,0.899145454283257
"chr02_37022377",2,37022377,1.49202178113796,0.898007888533907,0.0980745820055753
"chr02_37171699",2,37171699,-0.774296129837666,0.608762457574852,0.204776179151324
"chr02_37182712",2,37182712,-0.806407802703504,0.446709845431157,0.0724398530547124
"chr02_37194696",2,37194696,-0.64132441909328,0.585526875273232,0.274613038933435
"chr02_37209222",2,37209222,-0.691593643434487,0.48277853070371,0.153445180304557
"chr02_37226357",2,37226357,1.68214949065077,0.917523097247482,0.0681317698296368
"chr02_37244352",2,37244352,1.60552476832731,0.886825993423025,0.0716272281719205
"chr02_37255639",2,37255639,-0.453315303568729,0.665286179233325,0.496361866723221
"chr02_37260706",2,37260706,-0.31202642487716,0.778804974895399,0.689077360896844
"chr02_37456547",2,37456547,-0.434252971422893,1.04435912435778,0.677965162019479
"chr02_37549788",2,37549788,-0.917369560224557,0.569302351977903,0.108561223986339
"chr02_37736303",2,37736303,-0.386293350412643,1.06212652833159,0.716440876711849
"chr02_37812320",2,37812320,0.42739181777597,0.554255915112442,0.441488830819809
"chr02_37865709",2,37865709,1.59524632422995,0.796885053904054,0.0465573225442205
"chr02_3796514",2,3796514,-1.20429087245986,0.651584222626236,0.0659394672371
"chr02_38266731",2,38266731,-0.70564797471755,0.521420073152768,0.177374727559269
"chr02_38298897",2,38298897,1.39532319063096,0.929143845480616,0.13463408605477
"chr02_38309657",2,38309657,0.0158433893373626,0.602343713187338,0.979040135302384
"chr02_4042046",2,4042046,0.107805459800943,0.736350444707042,0.883738783883062
"chr02_4130975",2,4130975,1.0651755236986,0.745457548464066,0.154487592250669
"chr02_4243440",2,4243440,0.480749104689153,0.673061714221941,0.475833779800189
"chr02_426059",2,426059,0.403501644388655,0.694549825893751,0.561879803706163
"chr02_4304148",2,4304148,0.84458855245532,0.595024364426559,0.15722527071781
"chr02_4313968",2,4313968,-0.0343448235657888,0.84479473634313,0.967608953191655
"chr02_4415287",2,4415287,0.0955508867230606,0.487675411939987,0.844848981548878
"chr02_4504911",2,4504911,-0.0357387772418178,0.643803344443185,0.955782163583407
"chr02_4573656",2,4573656,1.42216562361716,0.847935171380019,0.0949545674773735
"chr02_4654445",2,4654445,-0.829701566649305,0.600253234804273,0.168328437754699
"chr02_4676460",2,4676460,0.0600006160289013,0.710909518388219,0.932817107107702
"chr02_4739698",2,4739698,0.9933475248381,0.519140161080398,0.0570190600816149
"chr02_4837551",2,4837551,0.890675771293104,0.55784096652773,0.111812889586629
"chr02_4859868",2,4859868,0.976103255174507,0.574505286726323,0.0907594694527255
"chr02_4904589",2,4904589,0.337080493300732,0.585112046552994,0.56515310116535
"chr02_4904709",2,4904709,-0.0822705375283022,0.607540083537229,0.892409814367013
"chr02_4906473",2,4906473,1.01470305047746,0.935294172968431,0.279179816055643
"chr02_4943011",2,4943011,1.16687429205513,0.877819035874328,0.185161774696369
"chr02_503104",2,503104,0.796639417420465,0.868936454468883,0.3602755942408
"chr02_504739",2,504739,0.0595967999460072,0.700374640231617,0.932266843297395
"chr02_5087009",2,5087009,-0.0379865263256534,0.558655757633935,0.945851770389639
"chr02_5087747",2,5087747,-0.662482539359644,0.535324447116241,0.217238481055683
"chr02_5141978",2,5141978,-0.595092162847834,0.524172926751143,0.257514760664959
"chr02_5163611",2,5163611,0.0849741209021886,0.820565395224077,0.917618574633984
"chr02_5273915",2,5273915,0.893311896208957,0.768776479302019,0.246527123545971
"chr02_5293580",2,5293580,1.43183489036164,0.922377785095014,0.122053984542676
"chr02_5318464",2,5318464,-0.822920007746688,0.671137739587465,0.221480986985091
"chr02_5346055",2,5346055,-0.710047043332906,1.03499527279587,0.493427693644477
"chr02_5400431",2,5400431,-0.0159097190278317,0.601508678157294,0.978923193356865
"chr02_5507698",2,5507698,0.414444850909376,0.81746268100516,0.612681897070811
"chr02_5519368",2,5519368,-0.589991702133602,0.857542589884698,0.492192622333027
"chr02_5602975",2,5602975,0.346426578113324,1.07239972646294,0.746979914615955
"chr02_5613148",2,5613148,3.30041627013452,2.48381644006659,0.185332974613582
"chr02_5633009",2,5633009,0.298792751386031,0.998709513291687,0.76509259310598
"chr02_5661071",2,5661071,0.316205659356001,0.693502805411628,0.648882965068756
"chr02_5776691",2,5776691,-0.47752876455047,0.959830185778686,0.619335204779219
"chr02_5817609",2,5817609,-0.121454680053375,0.964146203168836,0.899872420138439
"chr02_5890375",2,5890375,-0.89008054362273,0.736103452901999,0.227922249464259
"chr02_6062380",2,6062380,-1.15426857842635,1.05616815945426,0.275668062237944
"chr02_6202901",2,6202901,-0.388503502561093,0.895274501703104,0.664760587268939
"chr02_6259334",2,6259334,0.947607244962967,0.468234911929182,0.0442295421565488
"chr02_627606",2,627606,-0.0711929190433693,0.762045474575267,0.925654160062484
"chr02_643712",2,643712,1.5044995708945,1.15066045240037,0.192436161597232
"chr02_6467938",2,6467938,1.06723303419653,1.11931770798398,0.341423992029644
"chr02_6651005",2,6651005,0.616990550226319,0.632954077103394,0.330765193834157
"chr02_6723718",2,6723718,1.01039511543945,0.942456891852467,0.284883188238184
"chr02_6768468",2,6768468,-0.0242695110636078,0.64961647103229,0.970232827730478
"chr02_6778348",2,6778348,1.24086978223863,0.977891158881072,0.205840121439017
"chr02_678324",2,678324,0.118323743395365,0.566824740399257,0.834842309450308
"chr02_6874717",2,6874717,0.270934961988644,0.530200754071017,0.609872248350604
"chr02_706433",2,706433,0.928967793510878,0.774007536984867,0.231380478035709
"chr02_7169451",2,7169451,-0.326820826421908,0.848682901783175,0.700550092912243
"chr02_7418816",2,7418816,0.421552418479166,0.551028964825415,0.445093974658097
"chr02_7502518",2,7502518,0.348209907378248,0.471419718726434,0.460930609848345
"chr02_7636772",2,7636772,-0.55970601604497,0.678843062445191,0.410569359759878
"chr02_7786049",2,7786049,1.49010525736995,0.729806435504514,0.0423942757024986
"chr02_8180238",2,8180238,-0.564246020154599,0.522714278190004,0.281594857238777
"chr02_822333",2,822333,-0.568429352901148,1.06766475638858,0.594995758060735
"chr02_8304824",2,8304824,0.351287566339181,0.654151522887253,0.591814252910061
"chr02_8508438",2,8508438,0.806465432642426,0.964824263651302,0.40415730608875
"chr02_855522",2,855522,0.333354707272463,0.612654468985813,0.586925913188212
"chr02_8559217",2,8559217,0.229946093704086,0.644858189407301,0.721752978148801
"chr02_8633246",2,8633246,0.305675067677953,0.523558608140656,0.559939197615802
"chr02_8675657",2,8675657,0.273828222650764,0.647364763189452,0.672726006270293
"chr02_8676963",2,8676963,0.332925180471364,0.52452782068011,0.526289757101144
"chr02_8687675",2,8687675,0.478404681576421,0.740328484412831,0.518835139860655
"chr02_8697947",2,8697947,0.230304098659133,0.622912716959151,0.711954070245288
"chr02_878918",2,878918,-0.00110766682314534,0.60626592910285,0.998543934833242
"chr02_9015951",2,9015951,-0.165819088717228,0.440682865787415,0.707081581359241
"chr02_9136491",2,9136491,0.846703525967769,0.803526036133066,0.293187007577043
"chr02_9177217",2,9177217,0.511278959444326,0.602250575458341,0.396854896299247
"chr02_9190133",2,9190133,0.580526307376772,0.569104307667763,0.308841647359125
"chr02_9195475",2,9195475,0.172157753810097,0.676033766622355,0.799230272567365
"chr02_9240959",2,9240959,-0.230604873988,0.686293213368847,0.737187180086829
"chr02_9399095",2,9399095,-0.121848052794576,0.683052388739824,0.858586587567686
"chr02_9696089",2,9696089,0.651979018061411,0.877580065317333,0.458336103061814
"chr02_9711962",2,9711962,2.70171961034112,1.37436294197559,0.0506092059527654
"chr02_9716252",2,9716252,0.48593835854615,0.516248731207056,0.347614066026945
"chr02_9785211",2,9785211,0.366900222137588,0.621570777356143,0.555623471077925
"chr02_9802994",2,9802994,0.702508703102353,0.610696935109489,0.251281992187818
"chr02_9933775",2,9933775,-0.069923006278259,1.05571685409952,0.947254088663001
"chr02_9949511",2,9949511,0.806091174181461,0.60379759252681,0.183276626117012
"chr03_1001328",3,1001328,-0.143096443180809,0.442167166175775,0.746536371843883
"chr03_10093706",3,10093706,-0.803455073950772,0.778489236160091,0.30319907039913
"chr03_10125981",3,10125981,-0.39168593511954,0.65344873652031,0.549528363619814
"chr03_10128770",3,10128770,0.257745806968728,0.585910822324426,0.660446927163294
"chr03_10239128",3,10239128,-0.550940094040016,0.872069524222663,0.528213785564337
"chr03_10315113",3,10315113,-0.0223325699473378,0.495658208399971,0.964104181141718
"chr03_10368260",3,10368260,-1.10491606690465,0.562046013178613,0.0505994195067524
"chr03_10592313",3,10592313,-0.888307366711274,0.573139256470638,0.122636730565506
"chr03_10592987",3,10592987,-0.0119294380103838,0.685219480548224,0.986125948164438
"chr03_10677155",3,10677155,0.471621090396411,1.09242659006081,0.666378417863599
"chr03_10690411",3,10690411,-0.908596180467157,1.08831824180873,0.40472179734695
"chr03_10810230",3,10810230,-0.548321865842809,0.923030601434935,0.553106431640598
"chr03_10824746",3,10824746,0.756338207008525,0.787612640951839,0.33798691282183
"chr03_10901419",3,10901419,-0.731494632475233,0.936753046916276,0.435730189726793
"chr03_1108868",3,1108868,-1.39762408160067,0.793448526837937,0.0795827482277811
"chr03_1109892",3,1109892,-0.550660963672499,0.58675669433783,0.349049525406041
"chr03_11103120",3,11103120,-0.386000615795652,0.635319100835528,0.544114101818623
"chr03_11154973",3,11154973,-0.0640430594190775,0.719125084719816,0.929119582000646
"chr03_11177170",3,11177170,-0.571003853407319,0.893697915298546,0.523553317889736
"chr03_11187028",3,11187028,-0.559030682383877,0.575848038960711,0.332740996804244
"chr03_11408558",3,11408558,-0.618230151831312,1.07187155440926,0.56469394142107
"chr03_1143657",3,1143657,-0.249023396860025,0.555773237288419,0.654556344625502
"chr03_11453182",3,11453182,-0.108929412076577,0.95650562617717,0.9094370786054
"chr03_11456094",3,11456094,-0.751383091982461,0.532441391623759,0.15963006565487
"chr03_11497864",3,11497864,-1.13681021883986,1.03231909323274,0.272032328067362
"chr03_11503467",3,11503467,-0.936685583284884,0.734924030590942,0.203850052700068
"chr03_11619338",3,11619338,-0.50797034998979,0.445650522675877,0.255621157885349
"chr03_11624208",3,11624208,-0.68108233676503,0.914591417310325,0.457275484111407
"chr03_11678706",3,11678706,-0.192523237693877,1.07634009970729,0.858209471201954
"chr03_11698286",3,11698286,-1.3618838136984,0.568640371670148,0.0174788637540237
"chr03_11698538",3,11698538,-0.549124425002901,0.540135546533427,0.310466486830124
"chr03_11892902",3,11892902,-0.793490407678831,0.500655832881042,0.114458343731812
"chr03_11901691",3,11901691,0.78670252080758,0.764786924712491,0.304797282761599
"chr03_12047692",3,12047692,0.489707270849749,0.547351684426064,0.371956056069217
"chr03_12125394",3,12125394,-0.393755934452429,0.600888916904918,0.512982180216998
"chr03_12229763",3,12229763,0.740985712798363,0.51352633907613,0.150493783524322
"chr03_12230500",3,12230500,-0.0253211142689906,1.08488626226451,0.981400808724154
"chr03_12268112",3,12268112,-0.814734354533158,0.569669855968127,0.154115021501207
"chr03_12273333",3,12273333,-0.578359987593387,0.542428142549285,0.287509858915856
"chr03_12275735",3,12275735,-0.629144589280315,0.537679736913411,0.243252010613601
"chr03_12469361",3,12469361,-0.380262573970128,0.61064113000586,0.534124027994271
"chr03_12483600",3,12483600,-0.063278222256713,1.07887830610786,0.953283878311591
"chr03_12643424",3,12643424,0.0925977940287339,0.682864967650553,0.892262868654837
"chr03_12716265",3,12716265,-0.285467999726507,0.702392833822685,0.684836706321521
"chr03_12821422",3,12821422,-0.0641934899367698,0.517173261386179,0.901333252598648
"chr03_12839808",3,12839808,0.111226545115102,0.402315214979735,0.782455628304261
"chr03_1285343",3,1285343,-1.61424894328934,0.647386450107764,0.0134034520673779
"chr03_12962136",3,12962136,0.161082863899111,0.427991193525882,0.7070133084458
"chr03_12970267",3,12970267,0.59498015465806,0.539925451571212,0.271707974701326
"chr03_1300690",3,1300690,-0.308155677501929,0.57848833225612,0.594797441645439
"chr03_13096644",3,13096644,0.0438803154067955,0.668459892264163,0.947722333651819
"chr03_13112006",3,13112006,-0.907166997782042,1.03162344671103,0.380188616225416
"chr03_13137281",3,13137281,0.492841417161912,0.64458659172772,0.445356901518652
"chr03_13253493",3,13253493,-0.0172680788983826,0.583075159727763,0.976401153385029
"chr03_13442777",3,13442777,-0.16521203937782,0.528274110609293,0.754781923022339
"chr03_13562077",3,13562077,0.518424916082949,1.12276586229581,0.64473526109632
"chr03_13643839",3,13643839,0.154791828135444,0.571022352777017,0.786590810813496
"chr03_13688667",3,13688667,-0.042088736929486,0.524661807529541,0.936136348862425
"chr03_13766434",3,13766434,0.451221671298072,0.602606890729206,0.454806515282644
"chr03_13774059",3,13774059,1.36333002272551,0.779360500532309,0.0816672534979417
"chr03_14353032",3,14353032,-1.65955582856964,0.969451469343811,0.088366229976789
"chr03_14537129",3,14537129,-0.00221950576997187,0.81182313855097,0.997821139733714
"chr03_14697969",3,14697969,1.31287909884452,0.748892132426745,0.0810108968587251
"chr03_15194353",3,15194353,0.272128188487613,0.662040390200837,0.681449165111743
"chr03_1525490",3,1525490,-1.06821161009066,0.868939766424884,0.220292684326038
"chr03_15264935",3,15264935,-0.176891504181526,0.675958994754536,0.79381121345366
"chr03_15593292",3,15593292,0.196001761144885,0.704724387062549,0.781183373149754
"chr03_15640430",3,15640430,0.455717639226123,0.708041889583663,0.520500754563056
"chr03_15655886",3,15655886,-1.37065385718097,0.82668160484075,0.0987718881233301
"chr03_15754074",3,15754074,0.000697476408106468,0.75187838114255,0.999260706425129
"chr03_15829162",3,15829162,0.378091689205462,0.697332327347307,0.588244127811714
"chr03_15829408",3,15829408,-0.234299736380251,0.683816566599665,0.732207538515775
"chr03_15830760",3,15830760,1.55591002574056,2.1461420825077,0.469252598991452
"chr03_15861617",3,15861617,1.32889453436655,4.88349760286251,0.785791340227641
"chr03_15894213",3,15894213,0.0176744551363299,0.787416333161531,0.982112895330229
"chr03_15939275",3,15939275,0.234047964616593,0.664674324865433,0.725089966421194
"chr03_15947555",3,15947555,-0.369167724500812,0.737854912696468,0.617357545808793
"chr03_16000222",3,16000222,-0.415087757899812,0.624014633160487,0.506642448431932
"chr03_16014858",3,16014858,0.629012918162857,0.688606275256218,0.362024914006645
"chr03_16035446",3,16035446,0.113213182072542,0.913260317397779,0.901458053028742
"chr03_16067521",3,16067521,0.788907282065495,0.701083349743953,0.261729710384935
"chr03_16077170",3,16077170,-0.918443038435612,0.680615434199963,0.178618066037834
"chr03_16094221",3,16094221,0.347030526981257,0.710734268229301,0.625855909345012
"chr03_16222722",3,16222722,-0.524182470892129,0.935245646021379,0.57573856984368
"chr03_16328285",3,16328285,-0.1204182609074,0.722653154321647,0.867814999889365
"chr03_16425415",3,16425415,-0.26612546620413,0.662701144039134,0.688394310649136
"chr03_16598009",3,16598009,-0.124894074369706,0.915563416162951,0.891623027657729
"chr03_16742796",3,16742796,-0.48217226062448,0.671490311646446,0.473498060389781
"chr03_16742934",3,16742934,0.761459625089202,0.550897739410483,0.168339667364606
"chr03_16762626",3,16762626,0.316501775172952,0.870503753792351,0.71652547106447
"chr03_16834104",3,16834104,1.30162553533603,0.59929664497492,0.0309556507385122
"chr03_17020278",3,17020278,0.570854563518537,0.620663054088434,0.358734417516067
"chr03_17681198",3,17681198,-0.0987432477377297,0.865532151055021,0.909277780599913
"chr03_17682826",3,17682826,0.367533943858689,0.703462665737312,0.601885204183554
"chr03_17683519",3,17683519,0.0541833302837631,0.65809215024127,0.934457752692681
"chr03_17760762",3,17760762,-1.7421495896665,0.833088356530922,0.0376852142493736
"chr03_17883392",3,17883392,-0.954178749906873,0.743570318333834,0.200789678004925
"chr03_18072848",3,18072848,-0.12433625959207,0.824975618511844,0.880341790036954
"chr03_18085299",3,18085299,-0.25009838861547,0.705152994789647,0.723182582601374
"chr03_18260149",3,18260149,-0.294164927327188,0.726724501969033,0.686040261197685
"chr03_18649390",3,18649390,-0.358336972772918,0.735346558754623,0.626539724352809
"chr03_18748635",3,18748635,1.03577655657659,0.658728231168178,0.117330952606985
"chr03_18801960",3,18801960,0.734854120193972,0.74261292864261,0.323505473033633
"chr03_18855716",3,18855716,0.491052344114223,0.634255530130802,0.439652140268678
"chr03_188796",3,188796,-0.342282912408109,0.580913341963645,0.556335588773368
"chr03_19185395",3,19185395,-0.610661785273862,0.597760629428171,0.30812666345198
"chr03_19297286",3,19297286,0.406858760558862,0.713846161324085,0.569304651227365
"chr03_19311665",3,19311665,-0.239159479300184,0.617304443284359,0.698824484909888
"chr03_19352108",3,19352108,-0.60107917569394,0.745873609631913,0.421206670127666
"chr03_19416869",3,19416869,-0.675599759172314,0.605520099338799,0.265781214373187
"chr03_19446486",3,19446486,-0.144241418131486,0.533311688909798,0.787063042401674
"chr03_19608123",3,19608123,-0.198405127684737,0.703021866034722,0.778048164266437
"chr03_19680656",3,19680656,-0.0869505100818628,0.712295303560668,0.902956909769959
"chr03_19788412",3,19788412,0.118438501073456,0.628157322891142,0.850624076832185
"chr03_1980603",3,1980603,0.364972035361404,0.61061047411129,0.550658065613935
"chr03_19858345",3,19858345,-0.47606531591299,0.730028177376896,0.515020897295403
"chr03_19916009",3,19916009,0.0684524205070147,0.924913728269128,0.941071621542389
"chr03_20024040",3,20024040,0.0230064290677774,0.559475900402498,0.967237280061494
"chr03_20127594",3,20127594,-0.281443613635702,0.624653907122168,0.652761244760281
"chr03_20265343",3,20265343,-1.22037996380206,1.01357583146058,0.229900247832192
"chr03_20314011",3,20314011,-0.539164785058063,0.716018226449557,0.452271067262975
"chr03_20394753",3,20394753,0.715952007202986,0.696946289585592,0.305447684131545
"chr03_20394777",3,20394777,0.684790347743501,0.917144057073273,0.456087432263848
"chr03_20423596",3,20423596,0.690539770705072,0.694483918879189,0.321184475320777
"chr03_20530043",3,20530043,0.0153906443460414,0.512466404647679,0.976068997772036
"chr03_20671515",3,20671515,0.317518835341048,0.909457912081789,0.727333574112243
"chr03_2071465",3,2071465,-0.544848258919274,0.654194156546239,0.405851250229948
"chr03_20779590",3,20779590,0.210037411557778,0.82385042582191,0.799008469997996
"chr03_2086866",3,2086866,1.18071658721055,2.92173728652692,0.686530164419323
"chr03_21138363",3,21138363,-0.131671087444886,0.662206245240347,0.842578172831392
"chr03_21216900",3,21216900,-0.82399446395857,1.25787582567378,0.513124081186438
"chr03_21234170",3,21234170,-0.797239010123576,1.23484297071523,0.519214073433707
"chr03_21257226",3,21257226,-0.777248609794697,1.14224352371923,0.496946686798942
"chr03_21318748",3,21318748,0.149609812881465,0.663532766237519,0.821824227066627
"chr03_21321809",3,21321809,0.87816161288174,0.608498126604323,0.150430114181733
"chr03_2135890",3,2135890,1.64662276414538,1.14120065856999,0.150507818971418
"chr03_21367467",3,21367467,-0.384105663112564,0.812953569652753,0.637062262857736
"chr03_21486841",3,21486841,-1.01634570379883,1.14909188173897,0.377426639083247
"chr03_21494094",3,21494094,-0.148029833167413,0.624561317947337,0.812871536325381
"chr03_21498939",3,21498939,1.19446774985374,0.849912087459037,0.161345250230612
"chr03_21558988",3,21558988,0.0283261995538169,0.498528686619045,0.954741671850395
"chr03_21710103",3,21710103,1.90918421409151,2.45912015557612,0.438384494681791
"chr03_21736763",3,21736763,0.700649829803865,0.42847333489201,0.103465308349372
"chr03_22122371",3,22122371,-0.387986370970907,0.602839538597413,0.520522000311416
"chr03_22122940",3,22122940,-0.173806521848746,0.788890194281735,0.825832748986118
"chr03_22200638",3,22200638,-0.516034917626087,0.501556694652866,0.304698452546705
"chr03_22224976",3,22224976,-0.101602999412535,0.602935369027982,0.866337418759379
"chr03_22262677",3,22262677,-0.226736473121264,0.824290839993357,0.783527741105684
"chr03_22350599",3,22350599,-0.448958288499171,0.64218185367945,0.485236435164887
"chr03_22378574",3,22378574,-0.349832748251231,0.493105046721486,0.478814713214131
"chr03_22385281",3,22385281,0.221601186883163,0.53854167063673,0.681127690114491
"chr03_22498666",3,22498666,0.414308682620856,0.681514180703288,0.543879637743214
"chr03_22518995",3,22518995,0.216415987707933,0.866859753781307,0.803092421594527
"chr03_22579468",3,22579468,0.405599411725746,0.53493013129818,0.449144372457287
"chr03_22634300",3,22634300,0.0719041601750519,0.500166755345425,0.885824348208502
"chr03_22649934",3,22649934,-0.0984652749830275,0.815977393474205,0.904063871948453
"chr03_22777235",3,22777235,0.199247590916002,0.660928197385792,0.763350303678021
"chr03_23036162",3,23036162,0.188400117532183,0.838148265344831,0.822362845947165
"chr03_23040533",3,23040533,0.110856643350417,1.01018331640865,0.912718622707054
"chr03_231817",3,231817,-0.936984437342005,0.460452721562819,0.0430862472844971
"chr03_23182913",3,23182913,0.793665886896065,1.08326636273158,0.464563844873664
"chr03_23226147",3,23226147,-0.656381960978962,0.506477159333788,0.196373443491793
"chr03_2326005",3,2326005,0.438091887405989,0.43268415369439,0.31243803548779
"chr03_2326859",3,2326859,-0.144092178811036,0.662613160587791,0.828055731539383
"chr03_23336652",3,23336652,0.309118148580865,0.801254026110085,0.70003148175462
"chr03_234609",3,234609,-0.355004970938154,0.439193504970869,0.41980500913006
"chr03_23513882",3,23513882,0.146856032564131,0.481696415520989,0.760758113833061
"chr03_23545981",3,23545981,0.132984315436147,0.625875913395795,0.831936130933692
"chr03_23566102",3,23566102,-0.441781495850591,0.59316234044205,0.45721189649751
"chr03_23787251",3,23787251,0.272581378507027,0.728254480664551,0.708554382101609
"chr03_2387535",3,2387535,-1.00089221343814,0.813178369907898,0.219727639039765
"chr03_2390250",3,2390250,-0.775546983986231,0.593185838405778,0.192464256202358
"chr03_23908438",3,23908438,0.511348706575461,0.461702646998031,0.269303138008666
"chr03_24008858",3,24008858,0.175744269422154,0.607832634037341,0.772758458797944
"chr03_24023545",3,24023545,-0.191894430767832,0.442362653244012,0.664872725210755
"chr03_24100225",3,24100225,0.965974941557988,0.60364353749755,0.111013572947646
"chr03_24149785",3,24149785,0.400349806794225,0.885447092326259,0.651620907090926
"chr03_24152717",3,24152717,-0.898865229015371,0.536935853326323,0.0955720253214024
"chr03_24237910",3,24237910,0.264917970340548,0.584580586345728,0.650878932715542
"chr03_24282918",3,24282918,0.958467658465452,0.51772386577652,0.0654962923463764
"chr03_24283868",3,24283868,-0.481983227852311,0.563658128034071,0.393448481335522
"chr03_2429369",3,2429369,-0.161977249055326,0.583686144652393,0.781657143819763
"chr03_24587987",3,24587987,0.411393058786871,0.635703906649228,0.51822797684727
"chr03_24798908",3,24798908,-0.0499471713731054,0.558866818976346,0.928869293298854
"chr03_24828609",3,24828609,0.321864596293494,0.688842834509415,0.64079133532987
"chr03_24929987",3,24929987,-0.149384107314745,0.910150723206853,0.869782075227361
"chr03_25020290",3,25020290,-1.27820563525722,0.638301082497762,0.0464858335372001
"chr03_25106204",3,25106204,0.919950485691061,0.52114008750657,0.0789387703269444
"chr03_25109800",3,25109800,1.35534768757577,0.634558888535165,0.0338190225936402
"chr03_25172363",3,25172363,-1.12403089988675,0.717167419768545,0.118510491194111
"chr03_25362402",3,25362402,-0.631342346743622,0.628653197721291,0.316373740662789
"chr03_25391239",3,25391239,0.145490261965051,0.60342934843077,0.809702960651807
"chr03_25797916",3,25797916,-0.861418765978243,0.564005073675766,0.128150130739797
"chr03_25822539",3,25822539,-0.940252837937265,0.547427233339507,0.0873121911958548
"chr03_25840451",3,25840451,-1.17754391406515,1.05231157381622,0.264385823542184
"chr03_25855640",3,25855640,-0.139527396466349,0.631208250798535,0.825264750612066
"chr03_25878516",3,25878516,1.39194267609307,1.00479594135887,0.167396636114607
"chr03_26108585",3,26108585,-1.13462935438019,0.671135431698008,0.0923601839137182
"chr03_26175681",3,26175681,-0.352135801928966,0.58155782656647,0.545482556912312
"chr03_26321769",3,26321769,-0.0780372657998782,0.776626335604371,0.920055004192207
"chr03_26455552",3,26455552,-0.0747055276400062,0.388019052124142,0.847508362701699
"chr03_26753134",3,26753134,-0.0174070387221263,0.720051279681646,0.980735664107024
"chr03_26876027",3,26876027,0.259398936518977,0.343257036026482,0.45065692157629
"chr03_26956585",3,26956585,-0.466353446774406,0.589882370745104,0.430056102283626
"chr03_27153171",3,27153171,-0.767800019062975,0.591367051250396,0.195558854565702
"chr03_27199618",3,27199618,-0.598985865821703,0.546350280343643,0.274156334394873
"chr03_27267154",3,27267154,0.310728324477623,0.896502895087213,0.729230473317147
"chr03_27318643",3,27318643,0.262541395691528,0.78930396187361,0.739742258359226
"chr03_27443464",3,27443464,0.184149716110369,0.562422837633083,0.743667169771082
"chr03_27451048",3,27451048,0.267294800522677,0.637001082458431,0.675186183475406
"chr03_27705394",3,27705394,0.393113439775789,0.935655547399303,0.67479721007783
"chr03_27787737",3,27787737,-0.535293270473062,0.637800385413275,0.402244280686805
"chr03_27856820",3,27856820,1.71683109811102,1.15889826039272,0.139955075914036
"chr03_2796562",3,2796562,-1.11600505337839,0.73156687997209,0.128604169841075
"chr03_28040450",3,28040450,-0.810583402596876,1.53696093283929,0.598464063795267
"chr03_28049136",3,28049136,0.545901329869594,1.27747917569091,0.669568833782585
"chr03_28103996",3,28103996,0.453670094648714,0.761765002030465,0.552101432845665
"chr03_28139772",3,28139772,-0.571206181703701,0.616274069951624,0.355033118847223
"chr03_28148031",3,28148031,0.249078680228422,0.837704210440792,0.766497939942373
"chr03_28176415",3,28176415,-0.552034060495998,0.691614071921222,0.425645491942456
"chr03_28198260",3,28198260,1.47509847209585,3.04850318297384,0.628966132809609
"chr03_28205324",3,28205324,-0.133452317770548,0.675973277781853,0.843683460161999
"chr03_28230820",3,28230820,-0.432485557714472,0.606948935996119,0.47689266723349
"chr03_28285139",3,28285139,0.475954927551243,0.632340461606601,0.45246088660679
"chr03_2834597",3,2834597,-0.232945111223898,0.473004741364681,0.622882980172869
"chr03_2842724",3,2842724,-0.238134037539567,0.684132631928124,0.728119406659533
"chr03_28556095",3,28556095,1.04263331873153,0.739999726823666,0.160290297599309
"chr03_28578078",3,28578078,-0.984104478982545,0.605929970962567,0.105814816051949
"chr03_28614221",3,28614221,-0.869723426479709,0.612982281359275,0.15739385426463
"chr03_28849698",3,28849698,-0.152748273046313,0.687510935038711,0.824387956038815
"chr03_28869262",3,28869262,0.407368715361827,0.754274039358331,0.589700479526047
"chr03_2909214",3,2909214,-0.0544005807059307,0.570025754574117,0.924057966569237
"chr03_2910309",3,2910309,1.28120574787249,0.922134301986953,0.166150873694042
"chr03_29114058",3,29114058,-0.370691390239216,0.387035107464283,0.339253496653443
"chr03_2918766",3,2918766,-0.229930445339733,0.86595320302098,0.790861057625636
"chr03_2922524",3,2922524,-2.20404356686504,2.10570203414179,0.296412108551736
"chr03_2982329",3,2982329,-0.275059323683337,0.491727203058753,0.576488859675518
"chr03_29900229",3,29900229,-0.887923694673646,0.63124220351395,0.160981163903716
"chr03_29931262",3,29931262,-2.14282528138813,0.733036459777174,0.00383495556518172
"chr03_29944188",3,29944188,-0.563034864106157,3.08542755014013,0.855376459074159
"chr03_29957677",3,29957677,-1.06060523378341,0.569850913581348,0.0640812414933826
"chr03_30003457",3,30003457,-0.176824713671522,0.635366623035939,0.781046906701448
"chr03_30079439",3,30079439,-1.38745227603363,0.815220934415055,0.0902131932907348
"chr03_30117163",3,30117163,1.96840652489209,1.89292295131613,0.299565163511649
"chr03_30380429",3,30380429,0.892381977842092,0.742509195176273,0.230745174597284
"chr03_30501080",3,30501080,-0.597770412972523,0.870788412641491,0.493156238527779
"chr03_30583644",3,30583644,-0.303110055497825,0.594860562213757,0.610890716803245
"chr03_30666810",3,30666810,-1.65666909206561,0.752860245868445,0.0288360277953203
"chr03_30746353",3,30746353,-0.668498526316085,0.456840449718984,0.144843376322493
"chr03_30916675",3,30916675,-1.47394917722914,0.734138265148324,0.0459239105186418
"chr03_30990591",3,30990591,0.310553562794439,0.874162407022508,0.722744268007309
"chr03_31181670",3,31181670,-0.144648406759927,0.517070790871942,0.779941446532096
"chr03_31294382",3,31294382,-1.61303208459537,0.57606388119407,0.00557402206850306
"chr03_31530910",3,31530910,0.595624606255797,0.848180200792131,0.48329012826915
"chr03_31558060",3,31558060,0.199287928474632,0.624066200332767,0.749780430378615
"chr03_31609667",3,31609667,0.172116764964358,0.788077360854113,0.827323966656943
"chr03_31635927",3,31635927,-0.91962006335126,0.520078905436326,0.0784403126034897
"chr03_31638842",3,31638842,-0.677260740107613,0.502242755421328,0.178925106090621
"chr03_31675698",3,31675698,-1.06753677099516,0.793688527031089,0.18003182240841
"chr03_31711899",3,31711899,0.684311312351667,0.68193495333806,0.316755084020155
"chr03_31772697",3,31772697,-2.18891031880707,0.763031981943556,0.00453243542444647
"chr03_31805256",3,31805256,1.36396781299209,1.55670935104991,0.38190649906419
"chr03_3182265",3,3182265,0.458597484082475,0.827262825347663,0.579911915205489
"chr03_31898795",3,31898795,0.969793429893571,0.917944999805446,0.291933188942054
"chr03_31964523",3,31964523,0.110430381387346,0.728394017221822,0.879638262387583
"chr03_3210137",3,3210137,0.100487565583194,0.888713944482618,0.910079958356347
"chr03_3211100",3,3211100,0.437810088199967,0.862876043631441,0.612404983836909
"chr03_32218554",3,32218554,-2.06378425759976,3.19594825822052,0.519129730789455
"chr03_3226157",3,3226157,0.658263653035988,0.696636359119864,0.345761851868707
"chr03_32312317",3,32312317,-1.52472610895677,0.755843243873248,0.0449124387986042
"chr03_32355634",3,32355634,0.478894283671593,0.6671218819497,0.473628273402859
"chr03_3240274",3,3240274,0.859429243568854,0.441939723765638,0.0531183587493509
"chr03_32439683",3,32439683,0.355811369950743,0.852189291600451,0.676710198926939
"chr03_3299930",3,3299930,0.160719416049233,0.622040559711219,0.796365066737085
"chr03_33039768",3,33039768,0.139705725277963,2.276490754735,0.951122432594787
"chr03_33200603",3,33200603,-1.46643369459002,1.03518651087672,0.158050427590692
"chr03_3539273",3,3539273,-0.226623540862022,0.491035174574895,0.644890728160992
"chr03_3602025",3,3602025,0.746339559212061,0.5716730361255,0.193105787381023
"chr03_3745166",3,3745166,0.0633006598925476,0.802735417220781,0.937220350653734
"chr03_3801126",3,3801126,0.277199631046415,0.483500947106855,0.567028801263857
"chr03_3816185",3,3816185,0.466420369157845,0.726531110177062,0.521568337292578
"chr03_3881550",3,3881550,1.6883597804117,1.44735401122222,0.244698672238084
"chr03_3961405",3,3961405,-0.308059292488736,0.493927674525429,0.533490276242561
"chr03_4013990",3,4013990,-0.199658171771489,0.507847471370781,0.694601243949646
"chr03_4018357",3,4018357,0.556723230856505,0.509225559857523,0.275496797916779
"chr03_409546",3,409546,-1.45144774689516,0.831919394082132,0.0824664392610662
"chr03_4104144",3,4104144,0.264751303525031,0.619696253160979,0.669641150878603
"chr03_4355594",3,4355594,0.114065384096762,0.626746397544833,0.855757282365659
"chr03_4449413",3,4449413,0.362126409686198,0.819073083834254,0.658848699286321
"chr03_450475",3,450475,-0.115252345559384,0.750904657920096,0.878160048213928
"chr03_4545345",3,4545345,-0.296717968592645,0.70679131483869,0.67504356076304
"chr03_4546886",3,4546886,5.49688583308307,3.75796434984596,0.145001643738098
"chr03_4548052",3,4548052,0.225025874256517,0.744538141461529,0.762764700696183
"chr03_4623015",3,4623015,0.182583130551677,0.512172997728318,0.721825312458157
"chr03_4634076",3,4634076,0.602092283183993,0.860531469224734,0.484886663159954
"chr03_4726300",3,4726300,1.11047674055146,0.826528567439324,0.180512474242592
"chr03_4824885",3,4824885,0.533975901345343,0.7046014495572,0.449375982503912
"chr03_4895555",3,4895555,0.753314556037822,1.40949480103496,0.593577532824507
"chr03_4910420",3,4910420,-0.0820140820401321,0.991919391107586,0.934181161036229
"chr03_4946328",3,4946328,-0.646156424735409,1.14367775208362,0.572675586821234
"chr03_500418",3,500418,-0.704544330874342,0.486951346549478,0.149396019168576
"chr03_5058299",3,5058299,0.838089739306497,0.990711137037762,0.398522475095333
"chr03_5059394",3,5059394,-1.02965299397044,0.850553120796662,0.227389861031429
"chr03_5274501",3,5274501,-0.130557271923408,1.25189734894876,0.917038399857233
"chr03_5295902",3,5295902,0.0244363228007387,0.518117000535313,0.962426526314098
"chr03_5318681",3,5318681,-0.978940761586614,0.76082835136202,0.199590373143683
"chr03_5322779",3,5322779,1.07195000511888,0.749982259121625,0.154369247974382
"chr03_5328864",3,5328864,0.135374342477689,0.78561457102596,0.863350818808577
"chr03_5372601",3,5372601,0.383239435851237,0.676947871172764,0.571896903523782
"chr03_5396383",3,5396383,0.663861554181665,0.989111957670326,0.502833129991927
"chr03_5397676",3,5397676,-0.312133160488884,0.56017543760755,0.577966246173816
"chr03_5425700",3,5425700,-0.108668779990523,0.543912840515359,0.841833035741941
"chr03_5436624",3,5436624,0.65010039555159,0.877797588303222,0.459741627962004
"chr03_5440336",3,5440336,-0.134597529402981,0.700212931262262,0.847748407516302
"chr03_5443043",3,5443043,0.155949735211493,0.58142014899235,0.788785530669974
"chr03_5604594",3,5604594,0.568585442541803,0.643359827501513,0.377804769339492
"chr03_5653590",3,5653590,0.0714978361645535,0.976517208609682,0.941701365751713
"chr03_5654207",3,5654207,-0.420350743568633,0.970648386847206,0.665403999134368
"chr03_5766779",3,5766779,0.616130127951578,0.644045341697024,0.339815143038893
"chr03_5788535",3,5788535,0.117077506660507,0.861693607982183,0.892051917309963
"chr03_5840660",3,5840660,-0.212567996891408,0.442542863468093,0.6314788919994
"chr03_5864214",3,5864214,-0.0154073235385113,0.817836958450115,0.984986922336449
"chr03_5914287",3,5914287,0.415301283134113,0.867799743630614,0.632732212025256
"chr03_6005077",3,6005077,-0.41167373679275,0.634510768992615,0.517156857056284
"chr03_6346944",3,6346944,-0.149389189281237,1.04320898722881,0.886265091754869
"chr03_6385523",3,6385523,-0.673402504316243,0.58318089570414,0.249492617855529
"chr03_6422536",3,6422536,-0.452767650712758,0.639934352483351,0.480008350832116
"chr03_6473125",3,6473125,-0.962809335459269,1.02227063119394,0.347334633013607
"chr03_6616577",3,6616577,-0.151340788859727,0.500492318262069,0.762651801061413
"chr03_6723946",3,6723946,-0.200490843298041,0.497276460652251,0.687218057511966
"chr03_6915355",3,6915355,0.215683866755285,0.646560820549772,0.739016828307297
"chr03_6940830",3,6940830,-2.84817761004706,3.1782296254899,0.371173729389893
"chr03_7012355",3,7012355,-0.451174301338597,1.44322450025525,0.754875831961503
"chr03_7052602",3,7052602,0.50252297351517,0.522875223396889,0.337593423335423
"chr03_7058063",3,7058063,0.032470798501663,0.772478383844799,0.96651014781277
"chr03_7086940",3,7086940,0.0790861492122303,0.841579138861109,0.925217713144705
"chr03_7128899",3,7128899,-0.221656996901288,0.539199329498278,0.681419328157592
"chr03_7184618",3,7184618,0.657639368942029,0.468508121812847,0.161854399270111
"chr03_7186981",3,7186981,0.655425617013236,0.515766356381077,0.20518017292802
"chr03_7283460",3,7283460,0.77131384641757,0.47451972947454,0.105529049601219
"chr03_7302854",3,7302854,-0.577530224704901,0.631254940489927,0.36127315405863
"chr03_7303815",3,7303815,-0.157013357539768,0.706733170505263,0.824394149892811
"chr03_7386448",3,7386448,0.434202743299011,1.164444069262,0.709602014149583
"chr03_7407317",3,7407317,-0.485252777149697,0.544341869217663,0.373685121627501
"chr03_7448985",3,7448985,0.130204947899585,0.615794422046175,0.832742493429141
"chr03_750431",3,750431,-0.206828518384839,0.411484048372493,0.615731559778834
"chr03_7522300",3,7522300,-1.05764100265651,0.574547559558242,0.0670253600642012
"chr03_753585",3,753585,-0.284279623139355,0.625240897163633,0.64980384945163
"chr03_7536799",3,7536799,0.156711431464942,0.794912755972529,0.843901931308989
"chr03_7559034",3,7559034,-0.476712138282892,0.653586105187485,0.466563555342868
"chr03_7571318",3,7571318,1.83858009717142,0.797710831244025,0.0221308724717454
"chr03_7571563",3,7571563,0.852625782750238,0.553205236050024,0.124727249843494
"chr03_7589135",3,7589135,-1.11621664787577,0.534669892146158,0.0380051662963392
"chr03_7611870",3,7611870,-0.0145563747946653,1.53626488943972,0.992448805352791
"chr03_7674571",3,7674571,0.0282619267663904,1.68223160228261,0.986611543107544
"chr03_7678916",3,7678916,-1.06621709224413,0.516744742280894,0.0402819664157623
"chr03_7759782",3,7759782,-1.06920549467634,0.512657981143577,0.0381937411926836
"chr03_7772984",3,7772984,1.35770309706868,0.651930918984916,0.0384716823933794
"chr03_7796230",3,7796230,-0.872851895136364,0.510534564106668,0.0887674004956302
"chr03_7811915",3,7811915,-1.30372453455504,0.793032422954994,0.101643051893453
"chr03_7856579",3,7856579,-2.1834386062867,0.965356990841429,0.024710256556541
"chr03_7859787",3,7859787,0.404535264996639,0.568817197810165,0.47773935680443
"chr03_7860047",3,7860047,-0.665140771647543,0.834052851773322,0.426051961807568
"chr03_7864765",3,7864765,0.752156526208239,0.587827267044129,0.202081241963681
"chr03_7864777",3,7864777,-0.608814386670872,0.532255333163969,0.253962357555369
"chr03_7883246",3,7883246,-0.846044452878346,0.543364263889168,0.120929756543322
"chr03_7883863",3,7883863,0.842351670794812,0.54990683922185,0.127039906134731
"chr03_792127",3,792127,-0.616253148950364,0.496289560062285,0.215692428429168
"chr03_7951326",3,7951326,-0.741644519172951,0.617926037947781,0.231376379212371
"chr03_8050456",3,8050456,-1.88429558232087,0.851440903788379,0.0279445400496464
"chr03_808764",3,808764,0.311056259489533,0.639369658529801,0.627105011558682
"chr03_8123164",3,8123164,-0.200075206927352,0.547001165068438,0.714898250072294
"chr03_8242901",3,8242901,-1.65503088205696,0.826713940164335,0.0465479400337883
"chr03_8294130",3,8294130,0.861091891640058,0.59399954107832,0.148613037907448
"chr03_8306305",3,8306305,-0.150791598806052,0.836643739102564,0.857138678075803
"chr03_8310745",3,8310745,-0.691140605262945,0.712903570937303,0.33339869921006
"chr03_8431236",3,8431236,-0.189979790616007,0.586214928236921,0.74619348083012
"chr03_846774",3,846774,-0.868034719937555,0.564975014310566,0.125907537175149
"chr03_8801367",3,8801367,0.416357003642247,0.539902376202612,0.441452319907469
"chr03_8842747",3,8842747,1.41443437571934,0.871833071163783,0.106189928037928
"chr03_8934458",3,8934458,0.88379297569395,0.813849151233693,0.278720710137754
"chr03_8935487",3,8935487,1.60617244945206,1.60310548530364,0.317511828547558
"chr03_8948417",3,8948417,-1.69439857932116,0.720882598415995,0.019656069473208
"chr03_8953417",3,8953417,1.23542557285282,0.786615369669907,0.117755695110945
"chr03_8969200",3,8969200,-0.982389807514664,0.862244389969853,0.255829017946129
"chr03_8996880",3,8996880,0.231446232692406,0.748441599886354,0.757440319559516
"chr03_9079668",3,9079668,0.564205986379534,0.570551997522859,0.323834693609645
"chr03_9182171",3,9182171,-0.213801344456556,0.620552159452496,0.730781468974438
"chr03_9238670",3,9238670,-0.392731606664938,0.53007512845749,0.459563694764956
"chr03_9355194",3,9355194,-0.600032510760684,0.569578110224839,0.293308869776046
"chr03_9438089",3,9438089,-0.0954328827272093,0.70893010272707,0.893041928860264
"chr03_9530058",3,9530058,-0.498584380039119,0.910269324294012,0.584443551804344
"chr03_9697826",3,9697826,0.172744011566806,0.556349102663555,0.756484807085239
"chr03_9729108",3,9729108,0.464790759982463,0.583407238270225,0.426513884821643
"chr03_9766720",3,9766720,-0.70139841900982,0.640229597558257,0.27450494092118
"chr03_983968",3,983968,-0.243174776812225,0.595394656291536,0.683367284722116
"chr04_1015336",4,1015336,-0.668093052497682,0.557223418329428,0.231860159254348
"chr04_10201069",4,10201069,-0.47482855531598,0.59356657797873,0.424617891530677
"chr04_10207323",4,10207323,-0.236879861746417,0.670210408192619,0.72410414240441
"chr04_10251137",4,10251137,-0.41793607515956,0.971071495752783,0.667345611475222
"chr04_10251505",4,10251505,1.30250625474434,0.684900869408565,0.0585415057300007
"chr04_10255496",4,10255496,-0.00816674551924734,0.692887686806301,0.99060685239808
"chr04_10340200",4,10340200,-0.000226318896807243,0.774210183588798,0.999767031608335
"chr04_10367500",4,10367500,0.77240371822154,1.05857073544713,0.466388203775319
"chr04_10399180",4,10399180,-0.380391149427084,0.862059672861744,0.659469296377333
"chr04_10399669",4,10399669,-0.593453039503586,0.832060135420714,0.476474806819333
"chr04_10400684",4,10400684,-0.148935414024436,0.873933545048751,0.864840412428674
"chr04_10450933",4,10450933,0.638949045865729,0.515074248680257,0.216142914660572
"chr04_10493198",4,10493198,0.777565982951955,0.70672000377908,0.272455232794373
"chr04_10518975",4,10518975,-0.00429909769400183,0.615795708526493,0.994436191396575
"chr04_10594404",4,10594404,0.52503742853014,0.684099303336335,0.443633955682751
"chr04_10595695",4,10595695,0.0686592136081003,0.559360752303459,0.902423012332789
"chr04_10701657",4,10701657,-0.303147781462258,0.886333985845804,0.732666678058069
"chr04_10750938",4,10750938,0.041417206472488,0.749060550217487,0.955957022125278
"chr04_10909774",4,10909774,-0.617175078379205,1.19207568647858,0.605177949719444
"chr04_10926116",4,10926116,0.408450389550012,0.594865902437019,0.493058315335459
"chr04_10970422",4,10970422,-0.215454167051234,0.622092939351268,0.729427723645708
"chr04_11143852",4,11143852,0.174581751447022,1.15596913092719,0.880096566889487
"chr04_11222087",4,11222087,-0.458180088625681,0.589851478329059,0.438147077559119
"chr04_11292648",4,11292648,0.825066005184453,0.571653846824683,0.150392381330987
"chr04_11312021",4,11312021,0.492866599289187,0.566012362001297,0.38485095424641
"chr04_11374272",4,11374272,0.677124531089135,0.715294592853846,0.344886347651962
"chr04_11469802",4,11469802,0.157856864565474,0.781301150970447,0.840073717416786
"chr04_11563778",4,11563778,1.88064391212538,2.1713677964794,0.387395182145928
"chr04_11605881",4,11605881,-0.196065531522095,0.627830280746794,0.75512230536037
"chr04_11671692",4,11671692,-0.665305194657776,1.11048477986968,0.549728693620976
"chr04_11724660",4,11724660,-0.414533534809834,0.792523392243995,0.601474421127099
"chr04_11806472",4,11806472,-0.464687172372692,0.636472374811073,0.466125070446836
"chr04_11968548",4,11968548,-0.159217128704086,0.845174879776348,0.850753605842323
"chr04_1268887",4,1268887,-0.0870499385821404,0.553190699629972,0.875109029973815
"chr04_12729683",4,12729683,0.552752645341798,0.651917707871406,0.397443748421089
"chr04_1288265",4,1288265,0.185749324935841,0.907675401481836,0.838044734126057
"chr04_12962635",4,12962635,0.942311378914269,0.980524626978449,0.337617764302592
"chr04_1322698",4,1322698,0.931841962700901,0.712685601111712,0.192436775822615
"chr04_1337924",4,1337924,-1.16910484867594,0.689547065009308,0.0914343327079137
"chr04_13423957",4,13423957,0.180271540274134,0.735512242434586,0.806615423962205
"chr04_13462846",4,13462846,-0.907326559618468,0.642544739670945,0.159371217449333
"chr04_13529219",4,13529219,0.493731602167827,0.749520119995823,0.5107738089239
"chr04_13533082",4,13533082,0.583760725637035,0.71230698561833,0.413388620128352
"chr04_13684804",4,13684804,0.885034959575819,0.730170901505207,0.226807151146052
"chr04_13847710",4,13847710,0.536697353291459,0.568510461871011,0.346208197441978
"chr04_1392212",4,1392212,-0.385380054585255,0.429788916803651,0.370896414617343
"chr04_15073878",4,15073878,-0.433864544891208,0.671363288025525,0.518810511316316
"chr04_15133085",4,15133085,-0.136520431908139,1.11768725737389,0.902897905792018
"chr04_15207687",4,15207687,-0.67776458632261,1.05060639794277,0.519538838499494
"chr04_1521694",4,1521694,-0.296697101752841,0.580473193753434,0.60978470402918
"chr04_15442203",4,15442203,-0.263850638799966,0.663725454464117,0.691371215826864
"chr04_15510727",4,15510727,-0.0494556744478132,0.561423828916609,0.929887351863785
"chr04_15538835",4,15538835,-0.148128646952614,0.777360325239805,0.849055314046545
"chr04_15545878",4,15545878,0.0283463571341827,0.741518899818598,0.969541827426601
"chr04_15582297",4,15582297,-0.114220855782833,0.863551017424963,0.894895387031945
"chr04_15596623",4,15596623,-0.277562373425837,0.707393178163583,0.695170923188737
"chr04_15782164",4,15782164,-0.633200768519941,0.621720274500282,0.309601379157914
"chr04_15967305",4,15967305,-0.735700931773749,0.671426362080345,0.27442352582241
"chr04_15970703",4,15970703,-0.0288153726144174,0.606446313093142,0.962146782697029
"chr04_16352399",4,16352399,-0.00290742573895386,0.739381155885959,0.996866178914283
"chr04_16401343",4,16401343,-0.0159468011211175,0.75124798123064,0.983084199118553
"chr04_16554927",4,16554927,0.163611660321976,0.882884784602667,0.853156794325533
"chr04_16594798",4,16594798,0.178394329185494,0.830578091095172,0.830139835765134
"chr04_16697853",4,16697853,0.456714753064489,0.876101198690457,0.602691802363998
"chr04_16759174",4,16759174,0.195938757935437,0.728221947190948,0.788137986349369
"chr04_16793581",4,16793581,0.205088277158438,0.72611466437407,0.777873165038879
"chr04_16821154",4,16821154,0.726700399271294,1.02470062805322,0.478979160323315
"chr04_16828066",4,16828066,-0.126113775515989,0.588178628702906,0.830427389727172
"chr04_16836542",4,16836542,0.546008986164907,0.551016395529181,0.322842232464976
"chr04_16976679",4,16976679,-0.450505364909588,0.591544790051831,0.447148618963973
"chr04_1704199",4,1704199,0.0128061421610823,0.591819310565686,0.98275630992673
