"SNP","Chr","Pos","Effect","SE","DM_NIRS.GLM"
"chr01_10004826",1,10004826,0.019681021697636,0.595837237589921,0.973680902686618
"chr01_10151663",1,10151663,-0.440917465716552,0.733463874315847,0.548383224790008
"chr01_10367331",1,10367331,-0.176812769671642,0.909834367625036,0.846098708808165
"chr01_10386693",1,10386693,-0.922603518374416,0.540704893308608,0.0894101774938406
"chr01_10394249",1,10394249,-1.3435813654354,0.862964243692689,0.120969891670667
"chr01_10459214",1,10459214,-0.143382276502024,0.421375819484368,0.733987247804017
"chr01_10500903",1,10500903,-0.251876710893356,0.502805425653089,0.616928715553985
"chr01_10507110",1,10507110,-0.488758029261589,0.763466924145983,0.522742113794233
"chr01_10864521",1,10864521,0.12671796875938,0.55189414684871,0.818618614028386
"chr01_10866174",1,10866174,-0.94278508803086,0.772012511210167,0.223358629234018
"chr01_11074216",1,11074216,0.182036348738706,0.656954874683145,0.781978879259455
"chr01_11125873",1,11125873,-0.0654811348843509,0.554211944059882,0.90605873109881
"chr01_11456355",1,11456355,0.283801478954828,0.41974868267253,0.499696418023019
"chr01_11460558",1,11460558,0.452597185771054,0.84570156392137,0.593088073876601
"chr01_11617274",1,11617274,0.109967642997049,1.13376797262303,0.922823095702047
"chr01_11671587",1,11671587,0.403225203128841,0.561499240743132,0.473468723669317
"chr01_1170574",1,1170574,-0.0358077970926161,0.520155769006938,0.945181140980661
"chr01_11706644",1,11706644,0.0713500443986774,0.465760113893391,0.878393043196015
"chr01_1203737",1,1203737,-0.119567878079948,0.60030462057399,0.842312984535547
"chr01_1205059",1,1205059,-0.809429964778133,0.812747464232445,0.320419948660536
"chr01_12130342",1,12130342,-0.128111914685576,0.618305832001637,0.836052948165643
"chr01_12149915",1,12149915,-0.0482538076912817,0.470517822963533,0.918412892831526
"chr01_12436835",1,12436835,0.391558390708695,0.551918656294175,0.478821473245163
"chr01_12557779",1,12557779,0.178986023091284,0.765839736804962,0.815432949352191
"chr01_12639562",1,12639562,0.437883694319964,0.657079343602919,0.505870765073146
"chr01_12677718",1,12677718,-0.150730005369681,0.47184603994647,0.749700334194959
"chr01_12691348",1,12691348,-0.289962142774471,0.591638248176048,0.62456728822655
"chr01_12887212",1,12887212,-0.0107966561910757,0.573021421750116,0.98498508334629
"chr01_12898407",1,12898407,-0.266379437058447,0.577932895407202,0.645328002233551
"chr01_13312315",1,13312315,0.76302004383534,0.731404162658385,0.298026073203208
"chr01_13355185",1,13355185,0.981984789038449,0.57968054286869,0.0917250200992875
"chr01_13635364",1,13635364,0.697442404766321,0.646578446100958,0.281956497093124
"chr01_1371423",1,1371423,-0.488698931253737,0.650588509848242,0.453382819414971
"chr01_13729398",1,13729398,0.0972778794257749,0.529018417923638,0.854279606130949
"chr01_13759524",1,13759524,-0.496971951719047,0.769553354184717,0.51910871159569
"chr01_13917360",1,13917360,0.134343357054149,2.10474578653762,0.949166421950574
"chr01_14073951",1,14073951,0.494965949416667,0.569385618574689,0.385662494041059
"chr01_14127574",1,14127574,0.531485127385011,0.849692332595497,0.532310565689153
"chr01_14390149",1,14390149,0.60122530283472,0.853582002520768,0.481980695666249
"chr01_14405039",1,14405039,0.3929673608543,0.579152822608176,0.498177918846366
"chr01_14405646",1,14405646,-0.250258615243894,0.507027184269789,0.622111182103494
"chr01_15115460",1,15115460,0.42989687562175,0.64431276082604,0.505355270321858
"chr01_1513509",1,1513509,-0.0227259832454365,0.492215935486339,0.963217407304295
"chr01_1520463",1,1520463,0.358148393235638,0.874665625672413,0.682607036836417
"chr01_15295957",1,15295957,0.766305895302224,0.591892570720015,0.196835609742249
"chr01_156276",1,156276,0.0858973426050227,0.505977289952967,0.865355912617876
"chr01_15661908",1,15661908,-0.144223058538671,0.509194552454553,0.777269772303934
"chr01_15723481",1,15723481,-0.246700690512711,0.49536158171976,0.618982731713463
"chr01_15768615",1,15768615,0.502772110039842,0.542916907307515,0.355464305140359
"chr01_15770973",1,15770973,-0.426884314156496,0.989345513162676,0.666554681317117
"chr01_15774616",1,15774616,-0.219047331731474,0.490452631787837,0.655601172003903
"chr01_16030996",1,16030996,0.360416345001198,0.553372955260764,0.515549617521098
"chr01_16031834",1,16031834,-0.033833281013429,0.476980689862066,0.943518284400645
"chr01_16054748",1,16054748,-0.137979547450115,0.52001645825941,0.791006570202315
"chr01_16102261",1,16102261,0.227876890246904,0.518369062072966,0.660669940418343
"chr01_16273146",1,16273146,0.538700711867136,0.798638722926654,0.500709892877054
"chr01_1633957",1,1633957,1.02683522046397,0.681906193200403,0.133592182635922
"chr01_16582507",1,16582507,0.0258494057223828,0.528206554394999,0.961014512547316
"chr01_16593540",1,16593540,0.327539561262938,0.572188729382202,0.567632545683543
"chr01_16826063",1,16826063,0.43622036406515,0.565746491314735,0.44153016444895
"chr01_16826687",1,16826687,0.0904297007667765,0.570417397299281,0.874187410263213
"chr01_1707068",1,1707068,-0.971987246095182,0.805975426437346,0.229164517026907
"chr01_17076548",1,17076548,0.549363335433384,0.584415921629515,0.348271503083894
"chr01_17109043",1,17109043,0.962179420755547,0.579089337729003,0.0980763593970264
"chr01_17120007",1,17120007,-0.411363412670866,0.513506379945269,0.423973831322285
"chr01_17225829",1,17225829,-0.619245020909432,0.705844557136708,0.381306315345643
"chr01_17457946",1,17457946,0.647108562151743,0.614521956808391,0.293521452457782
"chr01_1762683",1,1762683,0.2875146995313,0.998497137896383,0.773666950422091
"chr01_17732729",1,17732729,0.961598108756107,0.611740202017587,0.117456587396684
"chr01_17785660",1,17785660,-0.26637266143922,0.66183864337344,0.687739043553765
"chr01_17802399",1,17802399,1.0900743499592,0.78392282556312,0.165816762977058
"chr01_1783281",1,1783281,-0.515873598610824,0.576310014086054,0.371726891767749
"chr01_17868655",1,17868655,0.98273875718138,0.83677739062102,0.241533090624976
"chr01_17974096",1,17974096,0.549383754992277,0.884497702218011,0.535181414130444
"chr01_18226286",1,18226286,-0.0770491509772455,0.769259912216423,0.920311430273785
"chr01_18227727",1,18227727,0.654381248495554,0.612749315597108,0.286755154739519
"chr01_1830667",1,1830667,0.19048546165584,0.874087427902477,0.82769621617558
"chr01_18542556",1,18542556,0.487505866791196,0.927199332086224,0.599585782925953
"chr01_1861268",1,1861268,-0.799380216858026,0.820818801844871,0.331220090065415
"chr01_1885535",1,1885535,0.661901441195141,0.873804131695427,0.449591100988342
"chr01_18926892",1,18926892,-0.0648277009900085,0.591150157957853,0.912779355626426
"chr01_19291098",1,19291098,-0.773116863262544,1.05593675113305,0.464874480281455
"chr01_19295910",1,19295910,-0.148778092431257,0.829162594545645,0.857769278029661
"chr01_19391419",1,19391419,-0.160033973342138,1.04991869853056,0.878995939995538
"chr01_19425881",1,19425881,0.475488446738666,0.707956134226807,0.502543574738245
"chr01_19491634",1,19491634,-0.164030476607365,0.62501098379122,0.793232690371866
"chr01_19492635",1,19492635,-0.0782782568873017,0.582856575629971,0.893291327764394
"chr01_1976428",1,1976428,-0.0347145097435657,0.510465094878466,0.945844933130839
"chr01_19789358",1,19789358,-0.69842300988887,0.59269967501117,0.239961552515125
"chr01_19790314",1,19790314,0.141242384800194,0.768957806295588,0.854439017336853
"chr01_19794182",1,19794182,-0.134910879886149,0.575885092653714,0.8150027191328
"chr01_2004082",1,2004082,-0.199756994762623,0.423093234749925,0.637313984703057
"chr01_20050245",1,20050245,-0.318828231561668,0.639803090223637,0.618770961045125
"chr01_20088182",1,20088182,-0.450613532462171,0.553471450558201,0.416463373513566
"chr01_20138138",1,20138138,-0.726940829490303,0.554484017189138,0.191261916618504
"chr01_20322508",1,20322508,0.0911116323992474,0.902061139841317,0.919642428527586
"chr01_20330444",1,20330444,-0.824287084742821,0.725302234459026,0.257035258375197
"chr01_20331158",1,20331158,-0.119071869003164,1.26045260073164,0.924826565252828
"chr01_20489190",1,20489190,1.19785550831352,1.53760088013907,0.436819689320755
"chr01_20509239",1,20509239,0.40953189704797,0.519256990300948,0.431171161021995
"chr01_20530953",1,20530953,-0.999057788287587,0.990006519209539,0.314051229250026
"chr01_20636109",1,20636109,0.368491375250244,0.609133822739832,0.54586064962748
"chr01_20667722",1,20667722,0.441723752293967,0.765531003636452,0.564537888967431
"chr01_20767259",1,20767259,0.286997752834509,0.863510542249485,0.739943075016738
"chr01_20770961",1,20770961,0.277937513122652,0.788679542349932,0.724880243518831
"chr01_20871256",1,20871256,-0.121027296159809,1.63960530299007,0.941226946442514
"chr01_2093431",1,2093431,0.340160139714101,0.590460382961214,0.565160476193666
"chr01_20966565",1,20966565,-0.422359755821006,0.556229124088021,0.448496526852492
"chr01_21155392",1,21155392,1.34936550834698,0.777550597872904,0.084115320341705
"chr01_21284235",1,21284235,-0.312732547810526,0.67073282116207,0.641509443826078
"chr01_21304949",1,21304949,-0.581204109203895,0.759438724401874,0.444935639767747
"chr01_21543232",1,21543232,-0.757674456898343,0.550290171528598,0.16999985665993
"chr01_21691298",1,21691298,0.477895565728247,0.430321713806091,0.268012405937943
"chr01_2179364",1,2179364,-0.844733345380405,1.02712185618505,0.411753309727626
"chr01_21804725",1,21804725,-1.5637154549774,0.664807094596852,0.0195781352946257
"chr01_21907179",1,21907179,-0.0978964791831629,0.550113248271093,0.858925908598351
"chr01_21925058",1,21925058,0.156649842547779,0.530049245781639,0.767870613302281
"chr01_21945573",1,21945573,-0.222117854821107,0.526320092927058,0.673435716880477
"chr01_22070856",1,22070856,-0.369678393262461,0.903220099940299,0.682738577000299
"chr01_22158873",1,22158873,-0.36927967061996,0.690117797598365,0.593141267122169
"chr01_22282534",1,22282534,0.0338278208635785,0.41661369650077,0.935361455700499
"chr01_22338076",1,22338076,0.143603403652349,0.425043001899852,0.735804315422642
"chr01_22464053",1,22464053,-0.0691021072205729,0.495977249048023,0.889324857770434
"chr01_22541997",1,22541997,0.0202236617321319,0.833564573948258,0.980666607547998
"chr01_22611029",1,22611029,-0.120176110152414,0.580964126158302,0.836319668654377
"chr01_22686521",1,22686521,0.0174126908645462,0.713344836764496,0.98054848795654
"chr01_22923999",1,22923999,-0.516534926575446,0.622387864880105,0.407510667262196
"chr01_22998086",1,22998086,-0.152613870915161,0.937054368123164,0.870778710196046
"chr01_23068672",1,23068672,-0.324584057784335,0.473857177901674,0.494099441971615
"chr01_23084855",1,23084855,-0.189998899659599,0.571624668368501,0.739926185507712
"chr01_23144120",1,23144120,-0.081557109496174,0.349916425574974,0.815926241291359
"chr01_23269024",1,23269024,-0.223934241027933,0.56861950549593,0.69410723462239
"chr01_23333716",1,23333716,2.41316016000314,1.38812037777003,0.0835788222304082
"chr01_23489335",1,23489335,0.0181910006278372,0.818771252413365,0.982295305574181
"chr01_23657456",1,23657456,-0.0515955646577595,0.649813218011191,0.936788531467261
"chr01_23693032",1,23693032,-1.6456483904434,0.822096715832561,0.046578115366215
"chr01_23746318",1,23746318,0.109817601930672,0.770047216177573,0.886731811133536
"chr01_23873016",1,23873016,0.456828463084108,0.481962367739466,0.344279482544736
"chr01_23889049",1,23889049,0.355226649368234,0.377538779427978,0.347821397243674
"chr01_24034499",1,24034499,0.976422137880604,0.672183688369757,0.14780302768025
"chr01_2415250",1,2415250,1.26119112287336,0.712067274909027,0.0779627236068234
"chr01_2415804",1,2415804,0.0785135188117465,0.762570914958873,0.918092400888577
"chr01_24201194",1,24201194,0.172535082677655,0.683753640520101,0.80102534277702
"chr01_24280724",1,24280724,-1.56307774804293,0.872964650066811,0.0747873400235787
"chr01_24316666",1,24316666,0.753337870369279,0.671021670038251,0.262840300847316
"chr01_2432095",1,2432095,-0.716103136902831,0.479633025624098,0.136910920454802
"chr01_2435851",1,2435851,0.357868581794776,0.529306920476267,0.499705603676574
"chr01_24390059",1,24390059,-0.547672416966748,0.825038137025507,0.507526808293727
"chr01_24443464",1,24443464,0.989589595945489,0.536851872374913,0.0666717554496106
"chr01_24450376",1,24450376,0.910868978813141,0.96160927236637,0.344592948948097
"chr01_24484663",1,24484663,0.32619691462628,0.894726684902403,0.715788759224237
"chr01_2449296",1,2449296,0.0402300661488653,0.584966318519286,0.945234587154445
"chr01_24541544",1,24541544,0.732824957932351,0.732325556172757,0.318116052891352
"chr01_24567030",1,24567030,-0.968463263616627,0.896051086553517,0.281002712154003
"chr01_24619931",1,24619931,0.736214921116698,0.831530854634085,0.37695392915535
"chr01_2472676",1,2472676,0.364232926020065,0.686172207131869,0.596097559587497
"chr01_24826610",1,24826610,0.888356461920182,0.708808438504681,0.211467036002478
"chr01_2484534",1,2484534,-0.164068595212541,0.616209187867191,0.790300615256931
"chr01_24941533",1,24941533,1.51276132914751,0.599235628685484,0.01231561920658
"chr01_24982151",1,24982151,0.781694355283719,0.505837311408926,0.123746696134122
"chr01_25014191",1,25014191,2.09059918972662,0.777981987080303,0.00777415652217042
"chr01_25016954",1,25016954,1.07362046986833,0.618756472312474,0.084164895124764
"chr01_2504459",1,2504459,-0.415826552014877,0.4330375608141,0.338015579670243
"chr01_25099192",1,25099192,1.04933444090068,0.570671956046938,0.0673412859506695
"chr01_25113668",1,25113668,-0.0330206383715677,0.735578238763663,0.964236468878135
"chr01_25229368",1,25229368,-0.857004637271416,0.698712570381722,0.221346591570355
"chr01_25289288",1,25289288,0.670530366618038,0.461397307718214,0.147623207226146
"chr01_25294479",1,25294479,0.507858241907485,0.436181639229859,0.245593804412048
"chr01_25337854",1,25337854,-0.117605327855586,0.629401092496394,0.851953935566691
"chr01_25362716",1,25362716,-0.288184795295535,0.909663146679038,0.751702717864946
"chr01_25393424",1,25393424,0.390567000330634,0.663244529201452,0.556570244224452
"chr01_25443483",1,25443483,0.319829098348634,0.558309358875145,0.567348562898251
"chr01_25532677",1,25532677,0.312351811654594,0.584533769786529,0.5936493783454
"chr01_2556323",1,2556323,-0.372197542383901,0.606916089057558,0.540358531140652
"chr01_2569979",1,2569979,-0.410098430842254,0.708011578627297,0.563049025177339
"chr01_25845667",1,25845667,0.255476054704545,0.568177524752051,0.653426361309951
"chr01_25880934",1,25880934,-2.77805160017635,0.8238532825398,0.00088612377870088
"chr01_25881382",1,25881382,0.254856664191095,0.742063622722495,0.731603860312397
"chr01_25881530",1,25881530,-0.193449964143269,0.655226756368895,0.768097184236288
"chr01_2592090",1,2592090,-0.366432536614383,0.632553239693905,0.563004836383247
"chr01_25944294",1,25944294,-1.25538724545822,1.02881632352346,0.223728879658884
"chr01_25993680",1,25993680,0.641876827935448,2.80710747076042,0.819351565257089
"chr01_25998363",1,25998363,-1.00931219329277,0.837101345819642,0.229262058761604
"chr01_26086515",1,26086515,0.452265798318678,0.5667538815027,0.425763144346787
"chr01_26089345",1,26089345,0.198513218092813,0.513509695755706,0.699452156320504
"chr01_26134955",1,26134955,-0.541946915820517,2.90368362619093,0.852119627694109
"chr01_2615400",1,2615400,-0.31764358697626,0.945901817713836,0.737344457541275
"chr01_26158581",1,26158581,-0.546140237680504,0.678292969871221,0.421620234881462
"chr01_26190062",1,26190062,-0.926114783623333,0.485317915990691,0.0577017387699189
"chr01_26324075",1,26324075,0.0552205956354328,0.566568826539606,0.922448827278577
"chr01_26431578",1,26431578,-0.215480771833342,0.472547078287065,0.64885560594821
"chr01_26434520",1,26434520,-0.393882565743127,0.662258789010549,0.552637671370441
"chr01_26521454",1,26521454,-0.717254447529285,0.750799241107461,0.340498236943109
"chr01_26521590",1,26521590,-0.421814374140126,0.666001085385613,0.527182027525859
"chr01_26529842",1,26529842,0.393164273313459,0.564657242846354,0.487007354246549
"chr01_26662163",1,26662163,0.181202552461997,0.652454194529783,0.781493186158301
"chr01_26679152",1,26679152,0.41977142168804,0.749182950009182,0.575859827200259
"chr01_26679655",1,26679655,0.0867882639511208,0.971871891397784,0.928927318761222
"chr01_26767744",1,26767744,-0.471768649142376,0.488841246343533,0.335601481670869
"chr01_26771973",1,26771973,0.904853779374093,0.802162061953119,0.260581029621822
"chr01_26834511",1,26834511,2.74833899640271,2.65300101144072,0.301406702348023
"chr01_26839647",1,26839647,0.196460139297301,0.814940073263875,0.809730349126581
"chr01_26886269",1,26886269,-0.28245626264777,0.931939838522294,0.762121483667052
"chr01_26920613",1,26920613,-0.455846296134439,0.682733335184226,0.505061669613333
"chr01_26979040",1,26979040,0.576196003121254,0.608786189317982,0.344982949971267
"chr01_26990235",1,26990235,0.269440061792693,0.913842996974955,0.768401113337127
"chr01_27034376",1,27034376,-0.261461137418394,0.517700758322138,0.614050788118355
"chr01_27137348",1,27137348,0.502138347683399,0.947116741153478,0.596542319020664
"chr01_27138077",1,27138077,0.593539268819598,0.599105278716376,0.322951565613482
"chr01_2721826",1,2721826,0.348293564067916,0.552456117038934,0.529078844853778
"chr01_27300138",1,27300138,0.223340341681819,0.854225291421394,0.793995307266724
"chr01_27305285",1,27305285,0.29872924591065,0.512783650050894,0.560803092391278
"chr01_2743293",1,2743293,0.477105909035686,0.855737814832222,0.577745709308222
"chr01_2746081",1,2746081,1.25726073553278,1.5733784761557,0.425132161531773
"chr01_27478092",1,27478092,0.00257753820268647,0.527829311087476,0.996108292411451
"chr01_27527881",1,27527881,0.645896729913147,2.69165064187495,0.810589666742126
"chr01_27716768",1,27716768,-0.374237345751396,0.634793759834463,0.55612280380833
"chr01_27719461",1,27719461,-0.682825476759263,0.70686011591189,0.335140670160971
"chr01_27737410",1,27737410,0.668926294752737,0.7824598413563,0.393566088401663
"chr01_27873765",1,27873765,-0.424460631822967,0.88970922337782,0.633795750439208
"chr01_27888440",1,27888440,1.62154345791805,0.659554497513224,0.0147480462009256
"chr01_27896076",1,27896076,-0.961850073674668,0.896029898318647,0.284280478570693
"chr01_27959108",1,27959108,-0.705341258625538,0.839696223299203,0.401852633630832
"chr01_27966626",1,27966626,-0.187473837740242,0.607322465351335,0.757859725735453
"chr01_28039549",1,28039549,-0.908297761055678,0.709157547837365,0.201652419893231
"chr01_28126221",1,28126221,-1.28566108873895,0.780932318542405,0.101173445588235
"chr01_28255228",1,28255228,-0.506009612378818,0.460200760588289,0.272773344509509
"chr01_28316341",1,28316341,-0.394552677142428,0.887536912722328,0.657097861232332
"chr01_28326510",1,28326510,-0.259975530567829,0.592307331794424,0.661164411207128
"chr01_28327033",1,28327033,-0.0342933996787735,0.560667979964318,0.951284953985822
"chr01_28328518",1,28328518,-0.737242149340233,0.615159256319933,0.23207073593614
"chr01_2838322",1,2838322,0.258439455132759,0.846748864090495,0.760501353324076
"chr01_28424913",1,28424913,-0.174139263156803,0.555614657061046,0.754270315725931
"chr01_2844907",1,2844907,-0.117254879037034,0.669620784033801,0.861162377061842
"chr01_28511520",1,28511520,-0.75939313400977,1.52351940139114,0.618683575291462
"chr01_28535711",1,28535711,0.137908987480273,0.688120088882606,0.841347936609609
"chr01_28649412",1,28649412,0.305846489985015,0.884220982412515,0.729763981946494
"chr01_28674840",1,28674840,0.630150922349344,0.744649759512996,0.398369689681801
"chr01_28744793",1,28744793,0.741918554938138,1.54458686202751,0.631482408315975
"chr01_28758380",1,28758380,0.0907803329070589,0.523349640267248,0.862454442468908
"chr01_2880314",1,2880314,-0.0682940074525931,0.81144970788667,0.933005917158645
"chr01_28817274",1,28817274,-0.420908284020598,0.603011314930589,0.485931864937481
"chr01_28844397",1,28844397,-1.35055060585887,0.713206815718027,0.059629354665689
"chr01_29074093",1,29074093,-0.976055289240321,1.23535513857729,0.430347537633291
"chr01_29095637",1,29095637,-1.28510394572726,0.634375581616503,0.0440347712226398
"chr01_29152234",1,29152234,0.21097720008548,0.505317880154747,0.676723156807514
"chr01_29201084",1,29201084,-0.617309014764828,0.652092468216872,0.344885419012651
"chr01_29400170",1,29400170,-2.97632853652203,1.90376437731008,0.119445089618645
"chr01_29442159",1,29442159,-0.0614349055371974,0.524917655918136,0.906940836036398
"chr01_29571299",1,29571299,-0.238745697122681,0.651806118564487,0.714517247347538
"chr01_29608354",1,29608354,0.183732282347648,0.7558406035425,0.808174744359345
"chr01_29914709",1,29914709,-2.26353711002548,1.06755470167464,0.035137601507877
"chr01_29926464",1,29926464,-0.467129691467164,0.594330638948245,0.432754959779799
"chr01_30028696",1,30028696,-0.238012629082618,0.847805290401049,0.779182531752013
"chr01_3004429",1,3004429,-0.416260444950296,0.548682459063147,0.448897890625968
"chr01_30046325",1,30046325,0.310946604843423,0.56249481634515,0.580980686638936
"chr01_30136967",1,30136967,-0.577069266319427,0.635079056471204,0.364557975045488
"chr01_30266150",1,30266150,0.037904707675068,0.711955041958125,0.957590337503671
"chr01_30285471",1,30285471,-0.529449495342305,0.641364383163843,0.410008563684866
"chr01_30291971",1,30291971,0.217208977029941,0.786732426549979,0.782746609456326
"chr01_3039807",1,3039807,-0.498185980442116,0.767509429157184,0.516976708361558
"chr01_30428165",1,30428165,-0.705711426323035,0.657584637819744,0.284401455421926
"chr01_30432434",1,30432434,-0.175519193276386,0.537981986175332,0.744551927367958
"chr01_30548050",1,30548050,-0.32340152308609,0.639531210535161,0.613600508166368
"chr01_30573400",1,30573400,-0.664811724195005,0.659764213040533,0.314765606086037
"chr01_30695647",1,30695647,-0.282437298431972,0.512097848565026,0.581848571852102
"chr01_31004147",1,31004147,0.679348099755089,0.826582385764838,0.412066585995562
"chr01_31078631",1,31078631,-0.582208114316956,0.687362650379972,0.397936110879387
"chr01_31140713",1,31140713,0.163380763139799,0.597653890062733,0.784833540146252
"chr01_31184982",1,31184982,-1.46135397569901,1.05142212098823,0.166015218538906
"chr01_31194281",1,31194281,0.50400480929676,0.700728506282678,0.472770146545174
"chr01_31196354",1,31196354,-0.791509616284884,0.766408557189188,0.3028913655477
"chr01_31247440",1,31247440,-0.731882130465394,0.724712871641116,0.313692610339251
"chr01_31455121",1,31455121,-0.197735436122912,0.797971797199933,0.804529783241471
"chr01_31469641",1,31469641,0.529413412385537,0.602476179175415,0.380538320174484
"chr01_31498756",1,31498756,-2.30283343511043,0.328247774208515,2.99976966241716e-11
"chr01_31507545",1,31507545,-0.830650134741383,0.535019554665048,0.122012759345592
"chr01_31529906",1,31529906,-0.450165581708404,0.608438825222716,0.460193613498335
"chr01_31544211",1,31544211,2.21873601357575,0.41406539387748,2.17277943949622e-07
"chr01_31570756",1,31570756,-0.355731256313561,0.513159170727669,0.488927847388036
"chr01_31692036",1,31692036,0.754831858140051,0.614594173856343,0.220735049114739
"chr01_31766350",1,31766350,0.463680609416542,0.774562811066693,0.550052219282431
"chr01_31830543",1,31830543,-0.638741847751817,0.927005636278811,0.491549409122975
"chr01_31831705",1,31831705,0.827632702434698,0.864735852733466,0.339605321903832
"chr01_32001190",1,32001190,3.58213370557513,0.549163580981529,4.93788161424544e-10
"chr01_32036233",1,32036233,-0.220482190335474,0.909327075547543,0.808651306683613
"chr01_32104506",1,32104506,-0.228629978986646,0.883085588191419,0.795963191287634
"chr01_32409587",1,32409587,0.173728536135513,1.40182420166181,0.901487308148512
"chr01_32410496",1,32410496,0.0879405991631756,0.843922610292368,0.917105054448516
"chr01_32540318",1,32540318,-0.471961546239243,0.571273688997656,0.409639678738731
"chr01_32613009",1,32613009,-0.41430067199309,0.622649987895365,0.50652545868594
"chr01_32687089",1,32687089,2.62888645535736,0.507758065052896,5.19538224803325e-07
"chr01_32694239",1,32694239,3.76360283363562,0.619930812678271,5.75579435676409e-09
"chr01_32694761",1,32694761,1.77788828953871,0.456926761482435,0.000133500449460697
"chr01_3272828",1,3272828,0.446203548818517,0.772693973098156,0.564235425412581
"chr01_33067627",1,33067627,-2.73218645956337,0.457970178883051,1.00253404571822e-08
"chr01_33081345",1,33081345,-1.84237828802213,0.466460274857717,0.000106365980692575
"chr01_33186603",1,33186603,-0.277689646183944,0.688743714983671,0.687218136584063
"chr01_33199949",1,33199949,0.224061239141633,0.550890164453699,0.684617780893804
"chr01_33222617",1,33222617,2.59726255452372,0.504748943779902,6.04167948621181e-07
"chr01_33244439",1,33244439,-6.91481388869954,0.701363186849439,3.95538366360402e-19
"chr01_33250754",1,33250754,2.14509825624609,0.432097054506737,1.41039275489842e-06
"chr01_33359326",1,33359326,3.9463887627968,0.563157097895878,3.1409259232702e-11
"chr01_33422365",1,33422365,0.387881939570093,0.644807880227685,0.548115732450892
"chr01_33617647",1,33617647,-0.43474350562343,0.475869190892419,0.36197170987175
"chr01_3368491",1,3368491,0.0194565045156168,0.467143048520964,0.966816734735582
"chr01_33697094",1,33697094,-0.378612277117043,0.648470971571272,0.559936416299284
"chr01_33701403",1,33701403,-0.0677804924746397,0.696196334815406,0.922533407302405
"chr01_33787351",1,33787351,-0.78548660452384,0.724538181364242,0.27953703084216
"chr01_33843130",1,33843130,-0.507611807400792,0.61531584966183,0.410316445113285
"chr01_33932284",1,33932284,-0.585634162974685,0.71884128507697,0.416158638941708
"chr01_34096636",1,34096636,0.888435215934805,1.41680497234768,0.531285232775225
"chr01_34381013",1,34381013,-0.223250739625541,0.764794297757492,0.770639910899334
"chr01_34384950",1,34384950,0.618145720716655,0.684029522852825,0.367184510414504
"chr01_34569381",1,34569381,0.486866659180293,0.603679492994814,0.420854980751619
"chr01_34582819",1,34582819,0.349469964287493,0.527761736357685,0.508575674827489
"chr01_34671057",1,34671057,-2.36450307532994,0.462655559538062,7.12606794642385e-07
"chr01_3473612",1,3473612,-0.462498731779306,1.07536864514733,0.667569424762683
"chr01_34862876",1,34862876,-0.818701443671443,1.09387267192367,0.455018566099345
"chr01_3495915",1,3495915,1.28672336503507,0.878297212009278,0.144389826530844
"chr01_34963322",1,34963322,-4.12193452137159,0.597448693642943,5.87599626004082e-11
"chr01_3516363",1,3516363,-0.257505079437124,0.656316584305159,0.695192766466349
"chr01_35253006",1,35253006,-1.69066714568633,0.413551446944916,6.16161368692949e-05
"chr01_35262632",1,35262632,-0.0691073755934326,0.570615135412201,0.903717836034131
"chr01_3528987",1,3528987,-0.983341807770216,0.587286936501089,0.0955234919100412
"chr01_35739046",1,35739046,-2.00680591196424,0.485353112850169,5.1116123085631e-05
"chr01_35803322",1,35803322,-0.307878892932536,0.69971242350709,0.660377639337144
"chr01_3583698",1,3583698,-0.0522835986976986,0.560636092273228,0.925786543522359
"chr01_35951952",1,35951952,-3.17042625870548,0.546424858692349,2.34845521185804e-08
"chr01_36123634",1,36123634,-0.718069689645631,0.898652342547603,0.425150538174784
"chr01_36210858",1,36210858,-2.22086887825009,0.601609780907511,0.000283180241754923
"chr01_36212929",1,36212929,-1.63287206591662,0.568806925173113,0.0045089182378886
"chr01_36306300",1,36306300,-0.586736015992216,0.595767090474251,0.325819410783753
"chr01_36342222",1,36342222,-2.45568897713819,0.509514985558757,2.73164117099877e-06
"chr01_36365889",1,36365889,0.508275959948662,0.707290562345606,0.473160199778478
"chr01_36478419",1,36478419,-2.89293012112735,0.555334621765221,4.46211422358719e-07
"chr01_36511514",1,36511514,0.095537999036992,0.58340886183127,0.870076758871539
"chr01_36604810",1,36604810,-2.38757299392324,0.537623703963931,1.4380334617037e-05
"chr01_36643619",1,36643619,-2.01857233215962,0.532693556393778,0.000196568238572005
"chr01_36665030",1,36665030,-2.43695402083006,0.77334880730633,0.00186011396149663
"chr01_36671166",1,36671166,-1.26927301389419,0.504267608460627,0.0125702851301282
"chr01_36754746",1,36754746,-2.80987638308129,0.556231695409188,9.4042642547094e-07
"chr01_3685775",1,3685775,-0.228384391517238,0.529788063894677,0.666841550735016
"chr01_36905272",1,36905272,0.346197485651885,0.662907942175718,0.602045477787366
"chr01_36946456",1,36946456,-2.38403734646295,0.589058568199525,7.25262064745724e-05
"chr01_37025260",1,37025260,0.705155163834831,0.589421119628964,0.232889192992688
"chr01_37058184",1,37058184,-5.22589282787658,0.780986210164721,1.92096164997842e-10
"chr01_371004",1,371004,-1.26958945018896,1.08074943198754,0.241414114070711
"chr01_37155583",1,37155583,-1.89950358652527,0.556470444841277,0.000767648914793708
"chr01_37213095",1,37213095,-1.0220560309898,0.8815011032589,0.247571096778727
"chr01_37225079",1,37225079,-3.9198448105389,0.740221007993807,2.94897037520706e-07
"chr01_3726802",1,3726802,-0.594404404558759,0.504582459337084,0.240106109691017
"chr01_37312095",1,37312095,-1.72179103412344,0.502394604515099,0.000731919000397654
"chr01_37330141",1,37330141,-2.76739241557897,0.560926705500715,1.62523362477847e-06
"chr01_37460442",1,37460442,-3.72615740658227,0.6906101270261,1.81303126273308e-07
"chr01_37531103",1,37531103,-2.04326863958192,0.551747187336864,0.000271160623003289
"chr01_37601557",1,37601557,-2.80849006733268,0.550588031086606,7.46375606045428e-07
"chr01_3762590",1,3762590,0.994815120290752,0.508416126172483,0.0516902119759955
"chr01_37733750",1,37733750,-0.902126027170652,1.09789331948556,0.412173144296602
"chr01_37812542",1,37812542,0.0480641245348465,0.603793394469202,0.936627274547652
"chr01_37823545",1,37823545,0.041483392688292,0.604309022843611,0.945335807079928
"chr01_37830831",1,37830831,0.0486348181802327,0.589960887090418,0.934376344306681
"chr01_37905733",1,37905733,-2.28728426451977,0.567427450192199,7.73372088081267e-05
"chr01_37921647",1,37921647,-1.32496505131041,0.814671274128771,0.105347360500888
"chr01_37977650",1,37977650,-1.87200557140829,0.559776456878542,0.000974960020688213
"chr01_38049236",1,38049236,-0.977298122216496,0.588084768167994,0.0980174602118487
"chr01_38110428",1,38110428,-0.385753602393891,0.551319776816873,0.48488360021334
"chr01_38111908",1,38111908,-0.599138724483794,0.573371743844131,0.297235397380902
"chr01_38243587",1,38243587,-0.557122690392589,0.618776673549527,0.368944736654006
"chr01_38281751",1,38281751,1.4048984152297,0.590612797762442,0.0182565640401867
"chr01_38307262",1,38307262,1.18291191940938,0.596069442091176,0.0484814299496667
"chr01_38709182",1,38709182,-0.48453892006242,0.546829046872938,0.376569141332815
"chr01_38912456",1,38912456,-0.214746843187527,0.81066399793819,0.79134081754409
"chr01_3901738",1,3901738,0.380800799378505,0.740322184499458,0.607525396928028
"chr01_3912340",1,3912340,-0.527463912901254,0.636893782610977,0.408494471765526
"chr01_39275829",1,39275829,-0.0980919270406844,0.787658505225572,0.901008260381953
"chr01_3934285",1,3934285,-0.909745344868639,0.483568808982313,0.0612931547437524
"chr01_39392062",1,39392062,-0.565117558768961,0.400575467327078,0.159772944919529
"chr01_39413610",1,39413610,-0.848402789836172,0.615883937727517,0.169792043603425
"chr01_39435399",1,39435399,-0.206258823352528,0.592041371054486,0.727894535000399
"chr01_39492254",1,39492254,0.591179062988658,0.79799449004647,0.459611820476252
"chr01_39492949",1,39492949,-0.711365793242408,0.599519891038285,0.236723342647312
"chr01_39667590",1,39667590,-1.14134851723975,0.871648722295873,0.191805042122953
"chr01_39691158",1,39691158,-0.188468200624925,0.832669295422363,0.821152335411366
"chr01_39741448",1,39741448,-0.456198890732253,0.641356557186993,0.477674677074067
"chr01_39773761",1,39773761,-0.125159010539505,1.06713576520318,0.906744734290595
"chr01_39856300",1,39856300,0.505131329660799,1.1658596961726,0.665257507264583
"chr01_39870679",1,39870679,0.823038200217866,0.642259150479473,0.201420612743008
"chr01_39935541",1,39935541,0.923495945745458,0.788780085507077,0.242991307740121
"chr01_40259869",1,40259869,-0.886728104408235,0.453742165626617,0.0519798359784347
"chr01_40280810",1,40280810,-0.319273790198508,0.580165511455782,0.582679977602212
"chr01_40375117",1,40375117,-0.156457139026088,0.712860717403297,0.826488013808517
"chr01_40462213",1,40462213,-1.76208603482826,0.8428076303412,0.0377380459899847
"chr01_40568279",1,40568279,-2.45251076138271,0.721343661295841,0.000804674022861276
"chr01_40592211",1,40592211,0.899935499761057,0.576295116691579,0.119869612679618
"chr01_4061495",1,4061495,-0.917069117035425,0.554456397596084,0.0996010784536463
"chr01_40740075",1,40740075,-0.769426066516758,0.757066701498603,0.310627523116615
"chr01_40741604",1,40741604,-0.868358705407445,0.94655678390684,0.359977554096182
"chr01_40775568",1,40775568,-0.390714368397568,0.394291361725044,0.322845063297663
"chr01_407922",1,407922,-0.0968283106894035,0.520243715657902,0.852526962171515
"chr01_40810441",1,40810441,-0.50858245584331,0.528010080460036,0.336536407018988
"chr01_40875381",1,40875381,-1.28779525712821,0.378870670690785,0.000807142400669883
"chr01_40896801",1,40896801,-0.498187026435062,0.539271660197717,0.356628203259413
"chr01_4092932",1,4092932,-0.607893310228064,0.460699638423935,0.188418455499579
"chr01_40967765",1,40967765,4.28076892113131,2.63505715280778,0.105738366524622
"chr01_41079401",1,41079401,-1.29530558856635,0.666904283168365,0.0534233641556865
"chr01_41086598",1,41086598,-1.19271534727437,0.646253787195024,0.0663406631459551
"chr01_4111198",1,4111198,-0.488307226099323,0.836027403945022,0.559784271564268
"chr01_41128450",1,41128450,0.0839801993271294,0.692347970101183,0.903569612816334
"chr01_41191690",1,41191690,-0.507923366984556,0.480618852685859,0.291794904421936
"chr01_41246279",1,41246279,0.501942582960737,0.847153100746746,0.5541408439584
"chr01_41253714",1,41253714,-0.49295601441213,1.08954211038713,0.651410126555496
"chr01_41355934",1,41355934,1.01168842310346,0.801553207040129,0.208271447451587
"chr01_41429103",1,41429103,-1.26875191650537,0.67510519739846,0.0615636171018633
"chr01_41430806",1,41430806,-1.33784772052377,1.75018950266566,0.445473925756996
"chr01_41445901",1,41445901,-1.10560470091355,0.504625512905421,0.0295407172667167
"chr01_41557103",1,41557103,6.4456555852139,2.68849354670613,0.017370636603459
"chr01_41640775",1,41640775,1.16541138724381,0.79991867786719,0.146613180619228
"chr01_41729716",1,41729716,1.47298370949795,0.580834185275475,0.0119303168062245
"chr01_41808553",1,41808553,-0.71419891751529,0.529832181710639,0.179099231620804
"chr01_41908221",1,41908221,0.639841430841699,0.556982555253719,0.25194175971216
"chr01_41925129",1,41925129,0.470573199049795,0.576226507862441,0.415043047652331
"chr01_41959255",1,41959255,-0.271028237847474,0.624573492529968,0.664770270303843
"chr01_42005457",1,42005457,-0.563331229844721,0.653518235504364,0.389658183530788
"chr01_42006955",1,42006955,0.680821486246003,0.448561521606853,0.130550549080495
"chr01_42038724",1,42038724,-0.42436361370136,0.630119254184285,0.501381254780163
"chr01_42055651",1,42055651,0.756746913206925,0.547259160902797,0.168175860566186
"chr01_42197194",1,42197194,0.976565651118847,0.71746440522207,0.174909402209991
"chr01_42345408",1,42345408,0.372699220307027,0.675786777526684,0.581866210287401
"chr01_42354090",1,42354090,0.618355917802887,0.371375482405597,0.0973744850866015
"chr01_42397090",1,42397090,0.675028110188407,0.453239934301176,0.137877176881953
"chr01_42424924",1,42424924,-0.20113424303787,0.506260966034554,0.691548792146291
"chr01_42524854",1,42524854,-0.804080479572235,0.493772326994983,0.104908976332687
"chr01_42571553",1,42571553,0.151338143607688,0.683014761792593,0.824857996297907
"chr01_4285205",1,4285205,-0.541588579714301,0.535263555452721,0.312773721219183
"chr01_42982896",1,42982896,0.326262060133615,0.643283525481608,0.612551558927691
"chr01_42992528",1,42992528,-0.0150990882810902,1.07075580467544,0.988762333108867
"chr01_4333551",1,4333551,0.277705467273108,0.61328634211774,0.651142600238485
"chr01_4351910",1,4351910,-0.35290895052799,0.625340139614395,0.573111654397714
"chr01_4407035",1,4407035,0.0232916048784659,0.665300247786436,0.972105220485991
"chr01_4481952",1,4481952,0.581501489189407,0.635895885762121,0.361509093701972
"chr01_4524181",1,4524181,0.658028428911393,0.846960487806554,0.438062440258758
"chr01_4535419",1,4535419,-0.683532999694307,1.12774072542932,0.545088222798551
"chr01_456504",1,456504,-0.38037946790385,0.585168945656506,0.5163709821246
"chr01_4654718",1,4654718,-0.473504837314522,0.77674825558583,0.542777302556626
"chr01_4720163",1,4720163,0.848850599179741,0.721493126626676,0.240700581467336
"chr01_4838942",1,4838942,0.52368475906718,0.613635263417396,0.394388600740198
"chr01_4995141",1,4995141,0.674796564104668,0.465316254489789,0.148476705755095
"chr01_5128216",1,5128216,-0.090141550150193,0.455464907753906,0.843303388166205
"chr01_516064",1,516064,0.0492825377218082,0.756532274620065,0.948121499047165
"chr01_522058",1,522058,0.459060370656971,0.793192609648507,0.563369226642391
"chr01_5231305",1,5231305,0.202544099263207,0.640742815367159,0.752229879174092
"chr01_5234421",1,5234421,0.541270264485945,0.580940652890993,0.352539447304531
"chr01_5249098",1,5249098,0.297072378268567,0.372402192057713,0.425921876100901
"chr01_5345802",1,5345802,0.898053943861441,0.830566713127747,0.280806612244763
"chr01_5494271",1,5494271,0.267153523688876,0.612897402347896,0.66336072363972
"chr01_5501929",1,5501929,0.716465283198673,0.853721668569956,0.402283486579877
"chr01_553551",1,553551,0.890147666205735,0.889246306745475,0.317956049913566
"chr01_5546938",1,5546938,-0.244557114268076,0.715066459410434,0.732683482808264
"chr01_5562524",1,5562524,0.113621259231763,0.766752445051136,0.882336907433549
"chr01_5770140",1,5770140,-0.0334574762150623,0.821987846016459,0.967570694996898
"chr01_5793001",1,5793001,-0.46517038766109,0.618643440915846,0.45292922370354
"chr01_5835307",1,5835307,-0.344011734666708,0.63183224226427,0.586689767291529
"chr01_5844439",1,5844439,0.700031889383027,0.455739784449765,0.126014086020452
"chr01_5873105",1,5873105,0.115142747245613,0.785797088550717,0.883641698935547
"chr01_5883795",1,5883795,0.22570474486281,0.393387541595563,0.566744642221457
"chr01_5884298",1,5884298,-0.677688461946104,0.583112878852102,0.246458494584114
"chr01_5944498",1,5944498,0.960165714247978,0.80161422510543,0.232329856892694
"chr01_604888",1,604888,0.026230654900445,0.500952796012655,0.958289700380929
"chr01_6095670",1,6095670,0.139572085409327,0.580708937736722,0.810291845501865
"chr01_6096837",1,6096837,0.188512617176968,0.444239527528588,0.671739564326487
"chr01_6102028",1,6102028,0.0261165035296074,0.450195041999051,0.953793829645767
"chr01_6117210",1,6117210,0.188265267821322,0.492650916347426,0.702733037845012
"chr01_6246086",1,6246086,-0.0224623928472738,0.82874769204088,0.978402146380436
"chr01_6262934",1,6262934,-0.0194228040174664,0.583522497826448,0.973478133376823
"chr01_6276937",1,6276937,0.607938034502581,0.838505397970543,0.469231946542998
"chr01_6294048",1,6294048,-0.15885969053906,0.575831892452568,0.782908789561539
"chr01_6313064",1,6313064,0.73188986853188,0.835770975193646,0.382176200297512
"chr01_6404967",1,6404967,-0.495573177387882,0.76312140324173,0.516777712334642
"chr01_6453773",1,6453773,0.643293510943522,0.717080476009451,0.370677936627843
"chr01_6554090",1,6554090,0.399108884217185,0.527573382564216,0.450185813264925
"chr01_6660408",1,6660408,0.285256355058692,0.463820625943968,0.539201705079794
"chr01_6828184",1,6828184,0.507785054334725,0.495321486197937,0.306449316597735
"chr01_6874616",1,6874616,0.149306277474523,0.511257868487052,0.770542482623031
"chr01_7203260",1,7203260,0.585750614481071,0.943631531451428,0.535433804961087
"chr01_7255296",1,7255296,0.134059685922466,0.901341289718657,0.881904607431163
"chr01_7282970",1,7282970,0.167760458730157,0.475350258208352,0.724497661264102
"chr01_7303615",1,7303615,0.236076762203936,0.468221592860998,0.614642828205236
"chr01_7304750",1,7304750,0.540540342494893,0.568855551778735,0.343075248748312
"chr01_779593",1,779593,0.118131310564479,0.745060449150889,0.874171557704811
"chr01_8073213",1,8073213,0.134876933468149,0.583083091093785,0.817290725726521
"chr01_8216215",1,8216215,0.42788853938886,0.508210116214863,0.400759126665291
"chr01_8248358",1,8248358,0.206487749846474,0.593911704386874,0.728428229981726
"chr01_8267306",1,8267306,-0.495754565601032,0.857337326476704,0.563706793384784
"chr01_8296625",1,8296625,-0.572612447675965,0.85959483686652,0.506040993438547
"chr01_8378991",1,8378991,0.172334728503529,0.83323212670026,0.836342711974865
"chr01_8389758",1,8389758,0.346742460358485,0.642863789553766,0.590193845660725
"chr01_8527939",1,8527939,0.18401018958599,0.640239704046618,0.774079146091838
"chr01_8538266",1,8538266,-0.662862737014052,0.643489798987152,0.304128502273016
"chr01_8546808",1,8546808,0.5127435136244,0.850466145917902,0.547218569933919
"chr01_8613806",1,8613806,1.41888489179314,0.709119792167639,0.0466714638144198
"chr01_8702552",1,8702552,-0.188627682939725,0.467316665877484,0.686882417530858
"chr01_8743395",1,8743395,1.09756746095093,0.845947865252533,0.1958829245441
"chr01_8882297",1,8882297,0.382008557942228,0.396350627844985,0.336231785079535
"chr01_8980272",1,8980272,0.239008822049698,0.61634692059616,0.698563915064197
"chr01_9137148",1,9137148,-0.338031359404226,0.494101571674598,0.494634612176646
"chr01_9195612",1,9195612,-0.288177027248537,0.619498341178974,0.642279182183934
"chr01_9313131",1,9313131,-0.173437193989486,0.431781249668912,0.688323464349748
"chr01_9477731",1,9477731,1.07840881656489,0.814646352844658,0.186996600356276
"chr01_9571473",1,9571473,0.131674422942865,0.475207490195782,0.781981046575018
"chr01_962893",1,962893,1.37780322382332,0.894558632102501,0.124994784372313
"chr01_9631156",1,9631156,-1.45931606434669,0.880667272430586,0.0989800962731579
"chr01_9650703",1,9650703,0.271544849204645,0.614786729183991,0.659161979454461
"chr01_9665027",1,9665027,0.161960461901117,0.583607821540935,0.781653145492326
"chr01_9704967",1,9704967,0.441490244157876,0.829550028102979,0.595139075293613
"chr01_9706671",1,9706671,-0.211482120146059,0.586448215286431,0.718744519685189
"chr01_9707169",1,9707169,0.130278737217083,0.448318108905604,0.771644272855072
"chr01_9897499",1,9897499,1.63060521906675,0.828188078643711,0.0502633300107731
"chr02_10204193",2,10204193,0.820024721151071,0.793393059056197,0.302510798429908
"chr02_1020554",2,1020554,-0.111662483547377,0.67212399104842,0.868209279049044
"chr02_1029286",2,1029286,-1.44919022496765,1.09115037840669,0.185556334066297
"chr02_1032529",2,1032529,-0.202359110123922,0.56278050694701,0.719524787987575
"chr02_10423338",2,10423338,0.329319947724684,0.841532892136234,0.695941984464795
"chr02_10468303",2,10468303,0.290190968751631,1.09210485623406,0.790714077680011
"chr02_10536514",2,10536514,0.667677467205863,0.923557959618179,0.470509504455892
"chr02_10826668",2,10826668,0.298581015796628,0.652912399042319,0.647916916615203
"chr02_10829778",2,10829778,0.835798565491615,0.594961040447256,0.161538763705417
"chr02_10833700",2,10833700,0.760252345452727,0.625569566980752,0.225598474235319
"chr02_10948519",2,10948519,-0.407176130765919,0.445121074931681,0.361355345739863
"chr02_11019461",2,11019461,0.855339052701595,0.698566533333126,0.222146206859234
"chr02_11433688",2,11433688,-0.776602352360669,0.851032609043321,0.362515559601191
"chr02_11592692",2,11592692,0.0349872406701195,0.604285400959129,0.953883728030446
"chr02_11603656",2,11603656,-0.808180709566614,0.86575734917764,0.351621112843717
"chr02_11716701",2,11716701,0.108094556521877,0.489094467068021,0.825296698121641
"chr02_11800780",2,11800780,0.463895932405876,0.552441702991807,0.402007334707109
"chr02_11864613",2,11864613,0.141938101686975,0.515289217332401,0.783235051682934
"chr02_11935491",2,11935491,1.27947069938898,0.868049692969911,0.141968683172484
"chr02_12021794",2,12021794,1.88076406141431,1.04266945415213,0.072676046111916
"chr02_12083669",2,12083669,0.68295414487784,0.88235720970998,0.439782558803407
"chr02_12155439",2,12155439,0.577496032889144,0.614333336906057,0.348263428141985
"chr02_12180748",2,12180748,0.178797054395403,0.446918763362829,0.689508744292862
"chr02_1219335",2,1219335,-0.324642460013138,0.837587870143381,0.698704933011584
"chr02_12215178",2,12215178,0.548038639915035,0.621625542163337,0.378975130133094
"chr02_12290376",2,12290376,0.411470740185848,0.598154971327061,0.492264254613096
"chr02_12425081",2,12425081,0.0978798827493392,0.76275348066931,0.898013335085406
"chr02_12569374",2,12569374,-0.0821327630176825,0.745085594369708,0.912328656226049
"chr02_12622691",2,12622691,0.100186037757794,0.782281160001751,0.898215129730329
"chr02_12719891",2,12719891,0.254437363867169,0.870173545668847,0.770266641172643
"chr02_12764932",2,12764932,-3.71604105814913,2.08834383619288,0.0765968174745723
"chr02_12788719",2,12788719,0.0178073581646458,0.595430692791325,0.97616947748764
"chr02_12790548",2,12790548,0.767299797184023,0.891398217156697,0.390325857620271
"chr02_12824996",2,12824996,-0.220927599966956,0.556357942994364,0.691694162572309
"chr02_12884895",2,12884895,-1.05483014306694,0.573880252505157,0.0674452807003825
"chr02_12935999",2,12935999,0.340881829568545,0.416704620245444,0.414247455128482
"chr02_12960918",2,12960918,-0.353731446243842,0.884081794938891,0.689475242626865
"chr02_13029494",2,13029494,-0.374881404705036,0.575775363123622,0.515690376638962
"chr02_13166283",2,13166283,0.558431152132016,0.837817845862096,0.505793382442724
"chr02_13209740",2,13209740,0.998021063368554,0.52015808328958,0.0563606520369641
"chr02_1322196",2,1322196,-0.4112334081791,0.735047380386337,0.57643210385962
"chr02_13428569",2,13428569,-0.393051276467872,0.864327575536581,0.649753632743343
"chr02_13434664",2,13434664,0.412208681149082,0.843919485083671,0.625736796293048
"chr02_13505818",2,13505818,-0.0275878311807105,0.64952484782706,0.966160733469841
"chr02_1356569",2,1356569,-0.339162961040429,0.46017052094105,0.461910571021945
"chr02_13575558",2,13575558,0.11406367576032,0.70528872008848,0.871674763006325
"chr02_13651123",2,13651123,-0.533796772609264,0.600173223361994,0.374789099777011
"chr02_13719895",2,13719895,0.316145820766877,0.512116246470449,0.537675046383386
"chr02_13912154",2,13912154,0.243828662065141,0.625681822620275,0.697147231509204
"chr02_13924381",2,13924381,0.0093720304296312,0.757795279534425,0.990143993089562
"chr02_13941423",2,13941423,0.468290111147525,0.558431448244096,0.402644452586368
"chr02_13960663",2,13960663,0.0504836140605391,0.51926325120325,0.922641819169444
"chr02_14028135",2,14028135,0.143674456618868,0.519091060936176,0.782216801838081
"chr02_14056209",2,14056209,1.08951995551718,0.960819588405621,0.258090755173022
"chr02_14086732",2,14086732,-0.117927575158376,0.737040498313112,0.873031532555759
"chr02_142151",2,142151,0.115044682144998,0.47898610600756,0.81041880337258
"chr02_14377163",2,14377163,0.260340853825539,0.601331395348584,0.665495893902746
"chr02_14413082",2,14413082,-0.425060771054802,0.429377974420143,0.323324005995564
"chr02_14429118",2,14429118,-0.400999645186488,0.552228008853643,0.468544790672771
"chr02_14602714",2,14602714,-1.29478532210499,0.850128999903036,0.129230530625086
"chr02_14713817",2,14713817,-0.670548775153748,0.860336646044046,0.436607600501984
"chr02_14743478",2,14743478,-0.0781274958623683,0.382782513867634,0.838466999139211
"chr02_14785055",2,14785055,0.625292633504031,0.807649434295881,0.43966338645872
"chr02_14805577",2,14805577,0.114658363927475,0.499042927998987,0.818501462345654
"chr02_14809405",2,14809405,0.408948935166492,0.547720166538982,0.456105156560575
"chr02_14884319",2,14884319,-0.209754553413802,0.596034580395575,0.725248609546949
"chr02_14939638",2,14939638,-0.108096729297756,0.522167633082292,0.836195618058466
"chr02_14956184",2,14956184,0.441961632961295,0.482053764871945,0.360268321602933
"chr02_15001953",2,15001953,0.0681182694414417,0.498251786339276,0.891385560787933
"chr02_15060273",2,15060273,0.0551610002235066,0.510758854867378,0.914098839804643
"chr02_15091010",2,15091010,-0.20385596442101,0.435783148979185,0.640411455405564
"chr02_15125442",2,15125442,-0.265503649003236,0.438341919781822,0.545358928631771
"chr02_15224300",2,15224300,-0.0694596038813415,0.4416705875875,0.875184480225409
"chr02_1535366",2,1535366,-0.16968149710101,0.922572501906259,0.854249520205252
"chr02_15367854",2,15367854,-0.787583784479466,0.471304701774293,0.0961761588175461
"chr02_15490919",2,15490919,0.117479719500238,0.621075180069702,0.850151144798199
"chr02_15523158",2,15523158,-1.6802211358364,0.899015572465125,0.0630014515393365
"chr02_1552778",2,1552778,0.147133934091016,0.809081902648866,0.855871070627484
"chr02_1568988",2,1568988,0.159934209034276,0.674820503732644,0.812882562777305
"chr02_15817322",2,15817322,-1.44983385583714,1.04448442029884,0.16656110830187
"chr02_15848014",2,15848014,0.154433994716697,0.772903285996749,0.841819616752223
"chr02_15908191",2,15908191,-0.182417227355813,0.690507189188598,0.791897724829659
"chr02_16034135",2,16034135,0.210886072279578,0.681392630037219,0.757249286376653
"chr02_16185840",2,16185840,0.447609390019132,0.527643062061911,0.397212907676295
"chr02_16236506",2,16236506,0.577827128500189,0.752656879516092,0.443505832922597
"chr02_16240125",2,16240125,-0.595260253314279,1.03104799338548,0.564322805570906
"chr02_16321305",2,16321305,-0.0516511072227104,0.678954496078662,0.939431252295095
"chr02_16340131",2,16340131,-0.268924092819475,0.853329746451771,0.752958764267502
"chr02_16427765",2,16427765,1.29891970501319,0.78350666198996,0.0988240815165894
"chr02_16523891",2,16523891,-0.253757307772446,0.71958473528316,0.724703977904246
"chr02_16547978",2,16547978,0.0886194708545531,0.65266870171325,0.892123298878722
"chr02_16565549",2,16565549,0.073481923264012,0.869421680677583,0.932723846575987
"chr02_16590252",2,16590252,0.394753285082061,1.11177301858412,0.722891150796992
"chr02_166287",2,166287,-0.0196675996956515,0.710781012333636,0.977950934187712
"chr02_16648949",2,16648949,1.22384336894383,0.946876514382467,0.197582402210693
"chr02_16741915",2,16741915,0.792874425294713,0.787567381135593,0.315202735073773
"chr02_16891410",2,16891410,0.426676035618414,0.656370088520763,0.516357788172242
"chr02_16944434",2,16944434,0.119249765251084,0.87281176311314,0.891454581361475
"chr02_16970367",2,16970367,0.123061388130481,0.517665773726167,0.812323964829899
"chr02_17026592",2,17026592,-0.974134284370848,0.600376194607526,0.106166963218925
"chr02_17161440",2,17161440,-0.0690893269403432,0.47568944247324,0.884658411205314
"chr02_17222131",2,17222131,0.765132133908935,0.669685592977265,0.254518745216278
"chr02_17275936",2,17275936,-0.0228903871914099,0.910140577293214,0.979958556817556
"chr02_17311395",2,17311395,1.57647468605771,0.826794815549259,0.0579013217100326
"chr02_1734469",2,1734469,0.161126532280377,0.829231120064412,0.846119639644518
"chr02_17354391",2,17354391,-0.987381180682632,0.811121278191354,0.224835508194098
"chr02_17365858",2,17365858,-1.08178607407558,0.956707055322862,0.259436499192146
"chr02_17505735",2,17505735,-0.133564455114964,0.560525337807003,0.811889582444002
"chr02_1760077",2,1760077,-0.180542968729185,0.588096391926332,0.759146688730629
"chr02_17699410",2,17699410,-0.799232725684078,0.769320351562195,0.300037685269836
"chr02_177081",2,177081,0.162444725954629,0.793632111067805,0.838013561563845
"chr02_17741343",2,17741343,-0.0370238509719627,0.566972997003895,0.947995667133958
"chr02_17781109",2,17781109,0.839800836920972,0.754108382465153,0.266691290420459
"chr02_17793194",2,17793194,-0.853555980590869,0.476560733642783,0.0747011156498186
"chr02_18019350",2,18019350,-0.197933076361153,0.498771598356945,0.691881953529038
"chr02_18068311",2,18068311,-0.195074547652354,0.492082652173754,0.692187363675506
"chr02_18175476",2,18175476,-1.41234421791114,0.791941839946869,0.0759460827623028
"chr02_18235382",2,18235382,-0.860361971085297,0.611410554190885,0.16083287007783
"chr02_18252614",2,18252614,-0.869908267191136,0.751627009197614,0.248418687226746
"chr02_18322358",2,18322358,-0.799488761027078,1.11833753837644,0.475459578870347
"chr02_18352851",2,18352851,-0.0170021538346248,0.476837394049303,0.971589981554797
"chr02_18456387",2,18456387,-0.915249513018239,0.470687408343527,0.053152429054877
"chr02_18502876",2,18502876,-0.305417230959677,0.654216903112084,0.641088660643844
"chr02_1853394",2,1853394,-0.020737062712584,0.678843131134587,0.975658895319456
"chr02_18584457",2,18584457,0.282401469166302,0.963550565809093,0.769743111052271
"chr02_18680597",2,18680597,0.67999224893677,0.680362496800362,0.318707997843215
"chr02_18750492",2,18750492,0.297063887550792,0.57641886185151,0.606835132094855
"chr02_18903337",2,18903337,-0.208659895243159,0.802700708721494,0.795155508486256
"chr02_18909029",2,18909029,0.171268344744135,0.56556878511457,0.762318795405772
"chr02_18923219",2,18923219,-0.415251750506172,0.870545154574701,0.633849750897606
"chr02_18987156",2,18987156,0.274206725583468,0.56140483921764,0.625748062141301
"chr02_18999400",2,18999400,-0.149953691520196,0.404985259874686,0.7115496191351
"chr02_19000375",2,19000375,-0.362144259915965,0.586929556913503,0.537883903712503
"chr02_19200792",2,19200792,0.205758622561802,0.81071713067702,0.799896211561171
"chr02_19428471",2,19428471,0.0352384059568749,0.51328361938357,0.945330319928061
"chr02_19584506",2,19584506,0.00149152333221991,0.399478543939458,0.997024459214058
"chr02_19594448",2,19594448,-1.1897327487969,0.533172599664425,0.0266952157683242
"chr02_19959035",2,19959035,0.482144241932019,1.39708618473642,0.730354469039504
"chr02_2002257",2,2002257,-0.245095507606408,0.49319908989751,0.619736531559602
"chr02_20093736",2,20093736,0.840933822219597,0.566592290702017,0.13923531945726
"chr02_20127151",2,20127151,-0.374505942188819,0.634029279301616,0.555363675975768
"chr02_20175995",2,20175995,0.656304590377033,0.591851362176519,0.268723349599108
"chr02_20199528",2,20199528,0.322980240262723,0.654379719959777,0.622120535712097
"chr02_20224634",2,20224634,-0.235412293494846,0.73557164072633,0.74925177912512
"chr02_20332317",2,20332317,-0.400969699182497,0.681206601850384,0.556741976003462
"chr02_2049709",2,2049709,-0.101954154016909,0.440074972495624,0.817013244610836
"chr02_2083282",2,2083282,-0.563784502482761,0.472558660724741,0.234178359414899
"chr02_20920942",2,20920942,-0.0671733353813195,0.411539443075154,0.870496406847494
"chr02_2100813",2,2100813,1.75548945269179,0.836765037533889,0.0370887766580897
"chr02_210544",2,210544,0.586615899429347,0.565178198513204,0.300479068062342
"chr02_2115821",2,2115821,-5.58107768507034,2.38445661984513,0.0201769408596379
"chr02_21196336",2,21196336,-0.616390262716948,0.627916446389944,0.327389059888057
"chr02_2129727",2,2129727,-0.266463709586787,0.785276493704709,0.734699458589908
"chr02_2160557",2,2160557,-0.551060823148077,0.776483976711805,0.478674234602801
"chr02_21742152",2,21742152,-0.708305215431835,0.68049825138951,0.29911930757311
"chr02_22050806",2,22050806,0.469395121820185,0.554475632656056,0.398192298719163
"chr02_22104241",2,22104241,-0.0903403857683998,0.552024999071946,0.870159725521219
"chr02_22161493",2,22161493,-0.0560481791086431,0.870682912969761,0.948733868123088
"chr02_22380151",2,22380151,0.124833286641731,0.474248649226653,0.792632936394325
"chr02_22427703",2,22427703,-0.496572720144854,0.707329339592356,0.483421320759186
"chr02_22662673",2,22662673,0.640490203917466,0.625756521430764,0.307211099496045
"chr02_2274960",2,2274960,0.0271759728596379,0.670331791467472,0.967699733918923
"chr02_22781213",2,22781213,-0.721117742501633,0.566256563583029,0.204234909633647
"chr02_22891824",2,22891824,-0.554629506252496,0.560573792020864,0.323591989933006
"chr02_22896187",2,22896187,-0.343613232127495,0.612720968396238,0.575524090759002
"chr02_23064125",2,23064125,0.063781265316976,0.614549531520938,0.917437312220226
"chr02_23170351",2,23170351,0.338605513034395,0.697795562899909,0.627997515410672
"chr02_23200488",2,23200488,0.229103579415153,0.593256887756557,0.699749287943046
"chr02_23247697",2,23247697,0.967941466787067,0.730631865780909,0.186656856813603
"chr02_23322302",2,23322302,-0.272286512374535,0.847886653657459,0.748422580243436
"chr02_23459514",2,23459514,-0.671113713468856,0.726816488247455,0.356864110085656
"chr02_23576588",2,23576588,-0.18132569302756,0.427075324268782,0.6715747431646
"chr02_23618262",2,23618262,0.724330144742055,0.6535150444531,0.268956175310174
"chr02_23646686",2,23646686,0.0877608657585256,0.689322377973053,0.898811444013864
"chr02_23651050",2,23651050,0.0107314671212748,0.69846171078623,0.987755821364879
"chr02_2375777",2,2375777,0.041865955010735,1.11633700572149,0.970119095676929
"chr02_23857770",2,23857770,1.02061049852807,0.770708534938194,0.186839373412016
"chr02_23902816",2,23902816,-0.52298504101563,0.639798073073117,0.414600684440064
"chr02_23910829",2,23910829,-0.624169654129787,0.601627998763355,0.300694235897775
"chr02_24011449",2,24011449,0.206830167381383,0.767557205965225,0.787832366891217
"chr02_24011462",2,24011462,-0.192662780994226,0.734308809274362,0.793287491383836
"chr02_24172657",2,24172657,-0.648724889738219,0.686681965535604,0.345870235685721
"chr02_24186238",2,24186238,0.36453744303769,0.389869420182687,0.350834519291811
"chr02_24201150",2,24201150,-0.963721040384371,0.919196990833617,0.295625042832167
"chr02_24204236",2,24204236,-0.203956675531799,0.770712942948914,0.791547495604239
"chr02_24233440",2,24233440,-0.55230800753003,0.548728628029998,0.315306083458126
"chr02_24321935",2,24321935,0.0635044317102711,0.627824671291355,0.919526579623339
"chr02_24355987",2,24355987,-0.193987557085222,0.609678718586949,0.750660165531621
"chr02_24398258",2,24398258,-0.336156193713464,0.695356552635949,0.629287051303257
"chr02_24443818",2,24443818,-0.419439944925102,0.685693279722864,0.541387290689045
"chr02_24546131",2,24546131,0.122687212369115,0.500640051162235,0.806645350850935
"chr02_24603906",2,24603906,0.842315505964507,3.33545951547496,0.800872197578749
"chr02_24624871",2,24624871,-0.589677474503674,0.685795095385813,0.390841223781016
"chr02_24753370",2,24753370,-0.46457676648879,0.673437530798735,0.491033945747597
"chr02_248069",2,248069,0.817853616999344,1.00607845416716,0.417175991198159
"chr02_24877438",2,24877438,0.478767584104162,0.782162607348319,0.541119500362234
"chr02_24889710",2,24889710,-0.354399417178229,0.673469224175904,0.599276211800513
"chr02_24980369",2,24980369,-0.813825607136778,0.759522085695753,0.285158607754195
"chr02_25108462",2,25108462,-0.223658332955239,0.555726152147765,0.687748085382065
"chr02_25115531",2,25115531,-0.386006667313666,0.700211260937696,0.582025233281122
"chr02_2517794",2,2517794,-0.636278698566741,0.69276622303098,0.359416484325161
"chr02_2528212",2,2528212,-0.104958598402021,0.512087629964891,0.837797402424122
"chr02_2529714",2,2529714,-0.0129984738800886,0.673798660071126,0.984626757156315
"chr02_25505386",2,25505386,0.277352965924536,0.75779512026486,0.714728371781648
"chr02_25537867",2,25537867,0.126073442576967,0.594045456793862,0.832131637755743
"chr02_25647786",2,25647786,-0.584454983007561,0.685126384324228,0.39458341630212
"chr02_25723636",2,25723636,1.01486607116061,0.721623668356973,0.161073078751337
"chr02_25728445",2,25728445,0.917454401751002,0.923858393106222,0.321803506548671
"chr02_25868843",2,25868843,0.559103097970194,0.687127557680509,0.416735999677365
"chr02_25893021",2,25893021,-0.0333793322369047,0.493295323724213,0.946114972925082
"chr02_25909477",2,25909477,0.611460144883438,0.545268551690782,0.263383407332892
"chr02_25998276",2,25998276,-0.31490559925453,0.518321672029104,0.544134077471243
"chr02_26027428",2,26027428,0.497261594363181,0.756854448064249,0.511883197269943
"chr02_26037143",2,26037143,0.453572956682876,0.514338805500271,0.378848545628196
"chr02_26097950",2,26097950,0.459240141378018,0.608432024048685,0.451207016468787
"chr02_2610832",2,2610832,0.302706124489646,0.75944045566333,0.690593876542124
"chr02_2622496",2,2622496,-0.172735568358405,0.564658774722124,0.759970869203077
"chr02_26279470",2,26279470,-0.0461310047987382,0.520553519999865,0.929467862073832
"chr02_26283613",2,26283613,0.444327812256688,0.57551536929505,0.44093935666927
"chr02_26291833",2,26291833,-0.495900404137004,0.528676742640985,0.349305223903388
"chr02_26453127",2,26453127,-0.557503118249258,0.68668519928089,0.417769257429351
"chr02_26497434",2,26497434,0.823741763243333,0.768702484124907,0.285112306573557
"chr02_26517451",2,26517451,-0.745106323407811,0.736250282311823,0.312672624341478
"chr02_26599767",2,26599767,-1.39321500962916,0.585475724721144,0.0182124615032709
"chr02_26770485",2,26770485,-0.0391733462121238,0.664348687256164,0.953035237372497
"chr02_26789667",2,26789667,-0.782573606564483,0.6401859035563,0.222901224660718
"chr02_26814621",2,26814621,-0.835178467270197,0.464195379896566,0.0734031400205319
"chr02_26821182",2,26821182,-0.421538618978943,0.671998436366118,0.531140300941117
"chr02_26873332",2,26873332,-0.46394287958492,0.507484357255471,0.361644766080285
"chr02_26943646",2,26943646,-0.386606074164604,0.732438001364329,0.598163612387089
"chr02_27034226",2,27034226,-0.27033914565834,0.443061469339964,0.542405114191231
"chr02_27180476",2,27180476,-0.853885013597903,0.543616736132225,0.117725431085697
"chr02_272963",2,272963,-0.479676841242053,0.542425531266167,0.377521502767144
"chr02_273607",2,273607,0.496233366586296,0.635346929556976,0.43564432102071
"chr02_27373560",2,27373560,-0.322718298078826,0.439587898845602,0.463671838786375
"chr02_27426218",2,27426218,0.613302311368955,0.658450873858963,0.352684583574775
"chr02_27597589",2,27597589,0.313361297447457,0.383182350857566,0.414393047749448
"chr02_27616801",2,27616801,-0.246170202483711,0.596116300380477,0.68005375673903
"chr02_2766556",2,2766556,-0.254364784575046,0.537700720620658,0.636654680990437
"chr02_27818004",2,27818004,-0.252806122202344,0.549220190731279,0.645770365768778
"chr02_27834279",2,27834279,0.903611176282283,0.471331548117841,0.0565574334414002
"chr02_27837971",2,27837971,-0.777001473167843,0.435502776287434,0.0758230758275337
"chr02_27846806",2,27846806,-0.611617375081437,0.558637342937999,0.274824103118434
"chr02_27885960",2,27885960,-0.438871555134085,0.604450991350047,0.468595128669609
"chr02_27977720",2,27977720,-0.0787651017670612,0.531992296866278,0.882437969403814
"chr02_28010163",2,28010163,0.108340230412921,0.493147239417404,0.826321863038436
"chr02_28038349",2,28038349,1.06056998256474,0.648869892205108,0.10363350312191
"chr02_28040606",2,28040606,0.310847513001022,1.07896229765266,0.773551413718709
"chr02_28069534",2,28069534,0.602917811222881,0.596771840457169,0.31349850057031
"chr02_28214696",2,28214696,-0.571536244575555,0.60485925944585,0.345776559661543
"chr02_2825165",2,2825165,0.188069443341277,0.569286117716135,0.741452563535653
"chr02_2830553",2,2830553,-0.363926993787175,0.631238661519924,0.564866845153983
"chr02_28343019",2,28343019,0.804480311133659,0.597855959072503,0.179859302496066
"chr02_28355115",2,28355115,1.09920839884541,0.721133235717548,0.128922334507906
"chr02_28355723",2,28355723,0.877121719968329,0.723709524339032,0.226862616392989
"chr02_2839068",2,2839068,0.49956255144042,0.597727468633251,0.404220982520962
"chr02_2860299",2,2860299,-0.263590620119771,0.737845540200003,0.72126312267155
"chr02_28614520",2,28614520,-1.22308156344582,0.550431943150352,0.0273325686521337
"chr02_28687000",2,28687000,0.0541900136518052,0.78173261930927,0.9447996265662
"chr02_28689273",2,28689273,0.131885449833277,0.499626104412699,0.792059565447472
"chr02_28694566",2,28694566,0.607299007758229,0.610503661775119,0.320986190517207
"chr02_2877410",2,2877410,-0.345570063522899,0.582323959819427,0.553521255385935
"chr02_28805611",2,28805611,0.242978450200098,2.62421572112196,0.926315614630648
"chr02_28908316",2,28908316,-1.45732849562319,0.806644459978959,0.0722273535118094
"chr02_28950389",2,28950389,0.512390064362307,1.01630790376502,0.614664331303235
"chr02_2898187",2,2898187,1.1910778582324,1.50808525219335,0.43052597158114
"chr02_29100617",2,29100617,0.114888084206285,0.434922399935797,0.791913842177834
"chr02_29108036",2,29108036,-0.0109819055322191,0.576597614056558,0.984822200511033
"chr02_2928214",2,2928214,0.160558941487892,0.525092998786588,0.76007658472933
"chr02_29300692",2,29300692,-1.81725797888566,0.720808964102041,0.0124299187082779
"chr02_29327270",2,29327270,-0.917447711097964,0.582408015921241,0.11667908656119
"chr02_2948360",2,2948360,0.552674535070295,1.04091230831577,0.596005186280188
"chr02_29579374",2,29579374,-0.751484726196338,0.698340626359907,0.283099643817271
"chr02_29721290",2,29721290,-0.990838789974703,0.778377495663426,0.204421970633569
"chr02_29767497",2,29767497,0.902828068503766,0.862177424640869,0.296217745124698
"chr02_29912721",2,29912721,-0.0169536127461356,0.679985112213679,0.980132282374871
"chr02_30041740",2,30041740,-0.857104239221371,3.49830605056687,0.806688048947776
"chr02_3009020",2,3009020,0.036923543458613,0.573310548908249,0.948708876793215
"chr02_30166081",2,30166081,-1.00022533546252,0.64406541135712,0.121910746709387
"chr02_30223258",2,30223258,1.62935465466182,0.757748525497482,0.0326615035076808
"chr02_30271120",2,30271120,0.521616778743009,1.62065260413586,0.747877425468112
"chr02_30331621",2,30331621,0.384368170264452,0.78930431197487,0.62677975096732
"chr02_3034700",2,3034700,0.0816430557454169,1.11437005958424,0.941664900370807
"chr02_30404145",2,30404145,-1.90410504504871,2.28691824611797,0.405998753308428
"chr02_30636799",2,30636799,-0.670001125890103,0.364157045866618,0.0671790952243688
"chr02_30649960",2,30649960,-0.709449760796247,0.591930100447922,0.232040062926696
"chr02_30666300",2,30666300,-0.272594203349996,0.617857710273884,0.659521131892854
"chr02_30667031",2,30667031,-0.53490008110029,0.523119661086438,0.307694978810703
"chr02_30692422",2,30692422,-1.06350749367687,0.551591278914833,0.0551758359966051
"chr02_30701370",2,30701370,-0.0344827777290817,0.671341179267639,0.959083596007779
"chr02_30756490",2,30756490,-0.572194554257806,0.630775039575657,0.365363497013058
"chr02_30789963",2,30789963,-0.25078140387734,0.89249332379015,0.778991081311588
"chr02_30870611",2,30870611,-1.02678550692164,0.419890561997041,0.0152824400868009
"chr02_3105367",2,3105367,1.11365301421813,0.741767174053749,0.134745704493356
"chr02_31056061",2,31056061,0.875327360958678,0.518375076541522,0.0927598232175618
"chr02_31097812",2,31097812,1.78200537134558,0.815108422057512,0.0298891778668599
"chr02_31098785",2,31098785,0.248549644064383,0.681885843324647,0.715843818214084
"chr02_3115657",2,3115657,-0.00767048272294346,0.456808994268841,0.986618713354293
"chr02_31287673",2,31287673,0.195054478856292,0.555803484435706,0.725979133539748
"chr02_31290996",2,31290996,-0.252837384546368,0.490625491706106,0.606852096079965
"chr02_31311006",2,31311006,-0.493450440395122,0.710282594128356,0.487985328480642
"chr02_31313265",2,31313265,0.471710943144842,0.69769364522701,0.49971035384434
"chr02_31383462",2,31383462,-1.23395004736273,0.718832140792045,0.0875053242744019
"chr02_31449850",2,31449850,0.00489717951381863,1.57871568860179,0.997527867594467
"chr02_3151030",2,3151030,-0.645844168184112,0.76298840874595,0.398242513508546
"chr02_31511825",2,31511825,1.44451817926426,0.80724337927766,0.0749637755337515
"chr02_31765419",2,31765419,-0.418513638638899,0.564265256964467,0.459088177445064
"chr02_31798840",2,31798840,-0.290497098501461,0.644810780383685,0.652797183696342
"chr02_31808231",2,31808231,1.24628358696896,0.705412663092235,0.0787033047096289
"chr02_31832663",2,31832663,-0.159058051857414,0.716192612367145,0.82445788309437
"chr02_31868120",2,31868120,-0.858705702983571,0.816438742009108,0.294096878921999
"chr02_3193505",2,3193505,0.662484483134349,0.746672706448879,0.375945672543449
"chr02_32014643",2,32014643,-0.610856679612709,0.767769169932155,0.427135534303294
"chr02_32402030",2,32402030,-0.0782345278375942,1.32049533117517,0.952811440438326
"chr02_32405101",2,32405101,-0.45407387513967,1.21779165147725,0.709618482416672
"chr02_32424504",2,32424504,-0.561868758712421,0.90765374965277,0.53655530156156
"chr02_32487257",2,32487257,0.422984761890461,0.9214716377187,0.646679430707758
"chr02_32605634",2,32605634,2.21455274242157,0.800815781634519,0.00618487678869763
"chr02_3264965",2,3264965,-0.564402051522478,0.562022330796285,0.316405205077149
"chr02_32833978",2,32833978,1.34348248539487,0.587478454152059,0.0231864682235618
"chr02_33091358",2,33091358,-0.172449213726793,0.608086268133226,0.776997501691905
"chr02_33098081",2,33098081,-0.596804589638168,0.830988846421634,0.473429591707694
"chr02_33116482",2,33116482,0.386285327343785,0.906525859623739,0.670453490380239
"chr02_33116794",2,33116794,0.377305122743223,0.5740915541105,0.511748247089683
"chr02_33150970",2,33150970,0.934212004064634,0.407682460257843,0.0229110323543615
"chr02_3315577",2,3315577,0.379371731843037,0.731703972176474,0.604663642479361
"chr02_33277731",2,33277731,-1.3163390025685,0.575569915918779,0.0231772018155932
"chr02_33282003",2,33282003,0.507799958921737,0.955994845881082,0.595851407147878
"chr02_3343107",2,3343107,-0.275299907781118,0.86337010895881,0.750140127337505
"chr02_33457715",2,33457715,-0.745560243274923,0.478844815159767,0.120955606752916
"chr02_33465368",2,33465368,0.664184821623735,0.65706925970678,0.313245053921024
"chr02_33491633",2,33491633,0.213830261099929,1.1141712012495,0.847988745940943
"chr02_33512686",2,33512686,-0.204588854887504,0.72708727041267,0.778691024500992
"chr02_33631144",2,33631144,0.374050982322984,0.495553634637625,0.451194156489786
"chr02_33728376",2,33728376,-0.46832326854522,0.569306050553925,0.4116433650809
"chr02_33831248",2,33831248,-1.10462782778882,0.976334690358253,0.259157791435396
"chr02_33879474",2,33879474,-0.452445103218963,0.557961329736086,0.418334133001009
"chr02_33956674",2,33956674,0.446281088647893,0.445227946530141,0.317304503779529
"chr02_33961766",2,33961766,0.256435375393437,0.622013742004587,0.680558781263247
"chr02_34112789",2,34112789,1.38028345839473,0.885372578662815,0.120484240680168
"chr02_34228354",2,34228354,-0.535087746921704,0.452197926043608,0.238007574687747
"chr02_34247407",2,34247407,-0.768066356359782,0.514053827260389,0.136619984997584
"chr02_34325507",2,34325507,-0.115433014272867,0.840345641464188,0.890873054061937
"chr02_34326757",2,34326757,-0.307364210332054,0.564429300798172,0.586627539024868
"chr02_34349765",2,34349765,-0.898095578175003,0.578691618806202,0.122160749897945
"chr02_34416047",2,34416047,-0.734565514082178,0.528753992424642,0.166210793222409
"chr02_34440763",2,34440763,0.832068781293231,0.671701161063539,0.216802042070372
"chr02_34441906",2,34441906,-0.722586748781055,0.810181944438637,0.373462573963126
"chr02_34445901",2,34445901,-0.782324916998505,0.816266774341909,0.338938538349226
"chr02_34447075",2,34447075,-0.447788359242026,0.745961367676542,0.548955389915084
"chr02_34482887",2,34482887,0.814861787101563,0.81442612699803,0.318186987554403
"chr02_34544695",2,34544695,-0.335885071110852,0.44771416317065,0.453948833080933
"chr02_3463205",2,3463205,0.336221288234924,0.617040843808442,0.586397109764456
"chr02_34677233",2,34677233,1.11841432941549,0.843064319768274,0.18605952626355
"chr02_34900196",2,34900196,-0.799472464783321,0.796669951860318,0.316749760436402
"chr02_34904613",2,34904613,-0.784298274998832,0.808221032816194,0.33294743001998
"chr02_35131427",2,35131427,0.842907565077212,0.608252622898845,0.167261662342008
"chr02_35134360",2,35134360,0.341134043603404,0.49961083757422,0.495475476607435
"chr02_35200518",2,35200518,0.668259210272716,0.761887577715227,0.381415089977603
"chr02_35316566",2,35316566,-0.791271659170789,0.648584320439099,0.223814636855682
"chr02_35342322",2,35342322,-0.659344346065353,0.395055378892289,0.0965880639555635
"chr02_35385043",2,35385043,-0.641760817348427,0.665840553514533,0.336221334070804
"chr02_354089",2,354089,-1.44140555540639,1.08494354852379,0.185416925516947
"chr02_35443672",2,35443672,0.0903187761485924,0.645074285928894,0.88878203828189
"chr02_35460118",2,35460118,-0.191346288432214,0.753690938054838,0.799833952793729
"chr02_35528220",2,35528220,-0.509607619830206,0.504687646308545,0.313761451534856
"chr02_35682061",2,35682061,1.97937601803892,0.890325932588666,0.0272527638706998
"chr02_3585514",2,3585514,-0.0339473766196079,0.605929580486216,0.95537418320807
"chr02_35888435",2,35888435,-0.280012575560818,0.821073367222639,0.733415389416219
"chr02_35922034",2,35922034,0.482956385002808,0.691968937189173,0.4859726882932
"chr02_36127767",2,36127767,0.334032524542124,0.585185207081429,0.568726734783034
"chr02_3617319",2,3617319,-0.221025466594483,0.61150133961223,0.718123421134818
"chr02_36238278",2,36238278,0.190436841488975,0.760711766968315,0.80256546088547
"chr02_36464622",2,36464622,-0.693038487991544,0.710923528133139,0.330744187173215
"chr02_36493661",2,36493661,0.565403816423498,0.692680464248104,0.415266287211605
"chr02_36598084",2,36598084,-0.495154293110502,0.507490378936649,0.330323921302779
"chr02_36624543",2,36624543,-0.558945190700385,0.496831819027278,0.261847149483899
"chr02_36653635",2,36653635,-0.41039282873723,0.537633798913098,0.446110331512824
"chr02_36728662",2,36728662,0.278994265217875,0.734700649512441,0.70451773831073
"chr02_36734552",2,36734552,-1.16490850223687,0.632455640875647,0.0668827545835061
"chr02_36818675",2,36818675,-0.251989854669063,0.550587787218175,0.647652997065537
"chr02_36955530",2,36955530,1.55998677869525,0.862154205887902,0.0717977486103287
"chr02_36970778",2,36970778,1.60662229654611,0.722702320080983,0.0272615050797453
"chr02_3698491",2,3698491,-0.305609539804664,0.57181276880451,0.593582563920529
"chr02_37008483",2,37008483,0.0125397169218502,0.599969985820641,0.983344534729477
"chr02_37022377",2,37022377,1.62883229544809,0.798756033002353,0.0426638779408371
"chr02_37171699",2,37171699,-0.832582062485457,0.523115161249457,0.112961054301542
"chr02_37182712",2,37182712,-0.806902590410907,0.408510217818713,0.0495332378306512
"chr02_37194696",2,37194696,-0.553012772330788,0.557639044278899,0.322467259029717
"chr02_37209222",2,37209222,-0.68658805019264,0.418687696453495,0.102510860087209
"chr02_37226357",2,37226357,1.84458085145218,0.810191307737962,0.0237963334714221
"chr02_37244352",2,37244352,1.76770345913542,0.800840262954273,0.0283598314401916
"chr02_37255639",2,37255639,-0.530044508739252,0.609009995746923,0.385095540447419
"chr02_37260706",2,37260706,-0.204563166431967,0.69542673835233,0.768926012735064
"chr02_37456547",2,37456547,-0.292524080931685,0.898063664645374,0.744950260337579
"chr02_37549788",2,37549788,-0.86246925438779,0.491798520467425,0.080919474389767
"chr02_37736303",2,37736303,-0.305504387901237,0.910567034907498,0.737570591695914
"chr02_37812320",2,37812320,0.432397321919893,0.563527510674857,0.443750054295866
"chr02_37865709",2,37865709,1.2967789421109,0.832342796765709,0.12072097420555
"chr02_3796514",2,3796514,-0.779538403942581,0.612965828198997,0.204849286813105
"chr02_38266731",2,38266731,-0.684846804873757,0.458888917206694,0.137073409809594
"chr02_38298897",2,38298897,1.60463091230997,0.810130047548293,0.0489108656139174
"chr02_38309657",2,38309657,-0.0850625467786585,0.567218517392078,0.88093466173786
"chr02_4042046",2,4042046,0.288207623764549,0.711083131013697,0.685657982081175
"chr02_4130975",2,4130975,1.00574959854453,0.699819566085792,0.152141122207252
"chr02_4243440",2,4243440,0.469843150043744,0.633843256590824,0.459351791890765
"chr02_426059",2,426059,0.231750064988859,0.673348529831767,0.73105385206636
"chr02_4304148",2,4304148,0.529636282189017,0.609679116846654,0.385981805878816
"chr02_4313968",2,4313968,-0.0823971817300162,0.804644825921311,0.918533992540369
"chr02_4415287",2,4415287,0.292179822956882,0.467756369560942,0.532875205185051
"chr02_4504911",2,4504911,-0.0701105011233381,0.628690739328283,0.911310397645231
"chr02_4573656",2,4573656,1.08427718052336,0.745729326539417,0.147423114729125
"chr02_4654445",2,4654445,-0.487094963818748,0.552259402137356,0.378768930637895
"chr02_4676460",2,4676460,0.137119689233543,0.664050073649665,0.836605434388847
"chr02_4739698",2,4739698,0.722928282048855,0.469525044501454,0.125117450059871
"chr02_4837551",2,4837551,0.871124715902852,0.523619798063236,0.0976511646555182
"chr02_4859868",2,4859868,0.847918547943664,0.583449271045539,0.147616118954626
"chr02_4904589",2,4904589,-0.0500507454162289,0.56320628109453,0.929270696855476
"chr02_4904709",2,4904709,-0.116916379333588,0.576950096926195,0.839605506433232
"chr02_4906473",2,4906473,0.783799603604621,0.886830099749032,0.377789015437575
"chr02_4943011",2,4943011,0.420235882765496,0.829388089524787,0.612902170569911
"chr02_503104",2,503104,1.26010356227471,0.848625797869642,0.139055255279479
"chr02_504739",2,504739,-0.0175529702210042,0.666314236496392,0.979008117506769
"chr02_5087009",2,5087009,0.131617733698278,0.54119249568605,0.808084918959222
"chr02_5087747",2,5087747,-0.332255364634022,0.499916215915631,0.507011124970414
"chr02_5141978",2,5141978,-0.278215848746129,0.489099756456291,0.570069082860124
"chr02_5163611",2,5163611,0.820129932441375,0.774338594759673,0.290737407051217
"chr02_5273915",2,5273915,0.948615605567682,0.721105109173296,0.189755313858236
"chr02_5293580",2,5293580,1.38660625975524,0.89131955368025,0.121269231367706
"chr02_5318464",2,5318464,-0.59357665935886,0.655149562749431,0.365950583362523
"chr02_5346055",2,5346055,-0.555129928683641,0.898518416483367,0.537348654085663
"chr02_5400431",2,5400431,0.139423184091072,0.597995144604761,0.815868030954577
"chr02_5507698",2,5507698,0.261715671582351,0.777871691691916,0.736862065450316
"chr02_5519368",2,5519368,-0.137805429466823,0.808751615604826,0.864862995381026
"chr02_5602975",2,5602975,0.525691558507901,0.967487759378577,0.587451996341617
"chr02_5613148",2,5613148,4.65041788497911,2.35118520387568,0.0492287664633317
"chr02_5633009",2,5633009,0.507715719840633,0.854501440958806,0.553031613465609
"chr02_5661071",2,5661071,0.288519027890914,0.663067049029594,0.663910096066095
"chr02_5776691",2,5776691,-0.379314522336131,0.852280406846941,0.656729525479677
"chr02_5817609",2,5817609,0.196218705655099,0.835319037678214,0.814509911969657
"chr02_5890375",2,5890375,-0.342921777355002,0.681983543698956,0.615603320121267
"chr02_6062380",2,6062380,-0.857618765434722,0.909345335646204,0.346689707807435
"chr02_6202901",2,6202901,0.255017101042085,0.841589330552987,0.762171533205182
"chr02_6259334",2,6259334,0.618977118165873,0.453495006464113,0.173723268364154
"chr02_627606",2,627606,-0.059488373132865,0.72484763071182,0.934667977876915
"chr02_643712",2,643712,2.15955459705242,1.13398115536443,0.0582055237409989
"chr02_6467938",2,6467938,0.609746671939206,0.96973798047306,0.53017029618729
"chr02_6651005",2,6651005,0.574282248303575,0.551436822732994,0.298857155762365
"chr02_6723718",2,6723718,0.536564928693565,0.889411297612925,0.546963632445053
"chr02_6768468",2,6768468,0.182506230135743,0.603831186890308,0.762758623185497
"chr02_6778348",2,6778348,0.862663086517955,0.828865181907072,0.299159383176784
"chr02_678324",2,678324,0.205888616714702,0.558800885551354,0.712905742938603
"chr02_6874717",2,6874717,0.395165649579866,0.481692689087381,0.412923022179022
"chr02_706433",2,706433,0.63975566493275,0.789654364864321,0.41874568252029
"chr02_7169451",2,7169451,-0.10334021584606,0.815710396417785,0.899307341890388
"chr02_7418816",2,7418816,0.218956659436088,0.535788429042145,0.683197891881596
"chr02_7502518",2,7502518,0.31998640407889,0.454068406985457,0.481760749280605
"chr02_7636772",2,7636772,0.0263895286964271,0.681343679675162,0.969140658940639
"chr02_7786049",2,7786049,1.287347939174,0.715737398266017,0.0734927329178917
"chr02_8180238",2,8180238,-0.253004702181045,0.504153065879709,0.616297674639551
"chr02_822333",2,822333,-0.00839529569827846,1.11701110619628,0.994010304752033
"chr02_8304824",2,8304824,0.281053750716723,0.600827502917714,0.640421767888415
"chr02_8508438",2,8508438,0.55542515907598,0.882667909255538,0.529854982166779
"chr02_855522",2,855522,0.573229909465084,0.569877324031293,0.315613185948906
"chr02_8559217",2,8559217,0.172952733105831,0.625916937596982,0.782571000875416
"chr02_8633246",2,8633246,0.0440904115325225,0.49787076426202,0.929516439107275
"chr02_8675657",2,8675657,0.0726003993863173,0.596099976386771,0.903178320639616
"chr02_8676963",2,8676963,0.0515682636923032,0.500094924308497,0.917967170971993
"chr02_8687675",2,8687675,0.166877344464183,0.686416702847708,0.808151235943734
"chr02_8697947",2,8697947,0.161307725092854,0.593677489735951,0.786108681405246
"chr02_878918",2,878918,-0.0182923367922854,0.584551920236187,0.975065238580407
"chr02_9015951",2,9015951,-0.0750456506351895,0.437367950591238,0.863926934768104
"chr02_9136491",2,9136491,0.422427979768258,0.774826060427709,0.586192769462179
"chr02_9177217",2,9177217,0.77966802472065,0.595240905336329,0.191662226020904
"chr02_9190133",2,9190133,0.318007052859571,0.554735859663852,0.567074391805587
"chr02_9195475",2,9195475,0.346081985866306,0.642490293681189,0.590685946963513
"chr02_9240959",2,9240959,0.0682642787822942,0.649027792907625,0.916332528392875
"chr02_9399095",2,9399095,0.200719909215991,0.648548848810742,0.757250751673398
"chr02_9696089",2,9696089,0.158391102026485,0.843860251442634,0.851291876889045
"chr02_9711962",2,9711962,2.89260895111966,1.29573246056205,0.0266286666475347
"chr02_9716252",2,9716252,0.35825823816009,0.48586555070721,0.461714412781412
"chr02_9785211",2,9785211,0.210489573568509,0.583287872044147,0.718556224109086
"chr02_9802994",2,9802994,0.535405600076331,0.590713024410478,0.365763294201289
"chr02_9933775",2,9933775,0.197469793709615,0.993462194524712,0.84263280354579
"chr02_9949511",2,9949511,0.846819731180403,0.609289498444601,0.166025934566535
"chr03_1001328",3,1001328,-0.286898895097949,0.451322979856825,0.525664648332334
"chr03_10093706",3,10093706,-0.75630823763413,0.826517931284082,0.361198214355233
"chr03_10125981",3,10125981,-0.487658077873675,0.619489899498547,0.432043959737399
"chr03_10128770",3,10128770,0.375788028759558,0.561826752642881,0.504303851602536
"chr03_10239128",3,10239128,-0.812063852087135,0.8221234338496,0.32438901133119
"chr03_10315113",3,10315113,0.0670396945663043,0.510309400720807,0.895606079540309
"chr03_10368260",3,10368260,-1.19453598532186,0.499201445689359,0.0175841676785625
"chr03_10592313",3,10592313,-1.02020366374998,0.507615829261723,0.0457144506167631
"chr03_10592987",3,10592987,-0.145374249038696,0.663246706079379,0.826715220304284
"chr03_10677155",3,10677155,0.589399821372083,1.03150189755667,0.568331201966376
"chr03_10690411",3,10690411,-0.956026413016616,1.02883100076646,0.353818867087641
"chr03_10810230",3,10810230,-0.958878479162195,0.859250914278986,0.265702191493382
"chr03_10824746",3,10824746,0.549499931776602,0.755155161045626,0.467617822539043
"chr03_10901419",3,10901419,-0.679401351834372,0.973503951267423,0.486005411297953
"chr03_1108868",3,1108868,-1.4893013999789,0.763216681808253,0.0523268356633812
"chr03_1109892",3,1109892,-0.758288925849143,0.5649634419779,0.180962903260001
"chr03_11103120",3,11103120,-0.103160015836558,0.628304392411738,0.869738876422284
"chr03_11154973",3,11154973,0.143023718947632,0.743969084383196,0.847734106792192
"chr03_11177170",3,11177170,-0.73582219709408,0.911143009364926,0.420232498558468
"chr03_11187028",3,11187028,-0.734397268079334,0.536391003507845,0.172395803719151
"chr03_11408558",3,11408558,-0.684615551191882,1.01383610189514,0.500235099314585
"chr03_1143657",3,1143657,0.0274406294515757,0.534601823631946,0.959111385352637
"chr03_11453182",3,11453182,-0.215881657107161,0.910955530500558,0.812897162279933
"chr03_11456094",3,11456094,-0.906258686196736,0.481185438323836,0.0610105063553902
"chr03_11497864",3,11497864,-1.21684117272412,0.978284950751047,0.214921384361874
"chr03_11503467",3,11503467,-1.03572238172859,0.666935959692774,0.121918133990216
"chr03_11619338",3,11619338,-0.633079868111224,0.42558453075017,0.138347491527074
"chr03_11624208",3,11624208,-0.971405179240492,0.863481492766475,0.261860774747182
"chr03_11678706",3,11678706,-0.328929083498338,1.0164911786864,0.746563937955363
"chr03_11698286",3,11698286,-1.32565441138482,0.539346872198782,0.0147742157243328
"chr03_11698538",3,11698538,-0.574379892365187,0.493825891944387,0.246081279785009
"chr03_11892902",3,11892902,-0.710878625322721,0.448462435637308,0.114416574801199
"chr03_11901691",3,11901691,0.874803044898272,0.726818482496078,0.230077874596515
"chr03_12047692",3,12047692,0.604775918471404,0.507622842981504,0.234827028716076
"chr03_12125394",3,12125394,-0.667900011505708,0.561025382936412,0.23517552465298
"chr03_12229763",3,12229763,0.712874856120365,0.472166743544871,0.132577797987078
"chr03_12230500",3,12230500,-0.294564656658963,1.02215428300883,0.773489005321943
"chr03_12268112",3,12268112,-0.868263985619151,0.542911181133087,0.111241884779676
"chr03_12273333",3,12273333,-0.57099064395635,0.508423306878826,0.262675623327433
"chr03_12275735",3,12275735,-0.632672634526358,0.504882311720788,0.211539851603948
"chr03_12469361",3,12469361,-0.574185736078022,0.585248760495427,0.327658014934118
"chr03_12483600",3,12483600,-0.287883785747567,1.03253955455261,0.780660077515916
"chr03_12643424",3,12643424,0.0506460271847402,0.653532766025068,0.93830190082739
"chr03_12716265",3,12716265,-0.356141038717169,0.717737626527123,0.620265321600555
"chr03_12821422",3,12821422,-0.0630808771209672,0.522817685748418,0.904077572508366
"chr03_12839808",3,12839808,0.00292840563921004,0.398745134455175,0.994147219410126
"chr03_1285343",3,1285343,-1.89043145484908,0.655575782277063,0.0043347179380016
"chr03_12962136",3,12962136,0.331413937806502,0.431914738549342,0.443744948581176
"chr03_12970267",3,12970267,0.644842025994876,0.523879199009259,0.219718363558968
"chr03_1300690",3,1300690,-0.516364450467563,0.554024239096256,0.352378824437091
"chr03_13096644",3,13096644,0.0644693420298665,0.636871212701696,0.919464515954368
"chr03_13112006",3,13112006,-0.678797252002369,1.03157343657844,0.511235013512517
"chr03_13137281",3,13137281,0.586461091003031,0.615243210827699,0.341559947661331
"chr03_13253493",3,13253493,-0.175120521821668,0.605504532887442,0.772698750440335
"chr03_13442777",3,13442777,-0.149078045203822,0.531414591469737,0.779342747381729
"chr03_13562077",3,13562077,0.245948749757645,1.03954653399297,0.813200431200263
"chr03_13643839",3,13643839,0.251057148864078,0.539369074076801,0.642074419293351
"chr03_13688667",3,13688667,0.148860529869921,0.521992992947665,0.775785445553044
"chr03_13766434",3,13766434,0.445938903682531,0.556941951950398,0.424202230470319
"chr03_13774059",3,13774059,1.40455650228762,0.714321469169378,0.0505651358040492
"chr03_14353032",3,14353032,-2.44772445903027,0.948900529164891,0.0105661013409901
"chr03_14537129",3,14537129,-0.0052660468534782,0.740177803234535,0.994330101182288
"chr03_14697969",3,14697969,1.0241318622742,0.719451754903984,0.156057498863652
"chr03_15194353",3,15194353,0.203996715495862,0.595253779656269,0.732158019864978
"chr03_1525490",3,1525490,-1.49903404646284,0.874527048928148,0.0879635277462403
"chr03_15264935",3,15264935,-0.103049905980271,0.599088481105031,0.863592071422276
"chr03_15593292",3,15593292,0.147986176868471,0.63744963401261,0.816641673122389
"chr03_15640430",3,15640430,0.376299716976689,0.633476853177704,0.55312719741707
"chr03_15655886",3,15655886,-1.45203167591546,0.875016778450144,0.0985001892244527
"chr03_15754074",3,15754074,0.122744576658413,0.695898047366406,0.860160657796875
"chr03_15829162",3,15829162,0.30864063076001,0.617530004761657,0.617732809931321
"chr03_15829408",3,15829408,-0.16740371206248,0.607249343871935,0.78306464470895
"chr03_15830760",3,15830760,1.51785437703256,2.08378400226855,0.467161152298449
"chr03_15861617",3,15861617,-0.0977840824616578,4.12422463298661,0.981106374531743
"chr03_15894213",3,15894213,0.0648555126153951,0.794282479786991,0.934999363661052
"chr03_15939275",3,15939275,0.151797619676927,0.59421979733103,0.79861664367829
"chr03_15947555",3,15947555,-0.189882961841988,0.631307017718644,0.763877534026107
"chr03_16000222",3,16000222,-0.347093550296734,0.550103181956763,0.528742597739283
"chr03_16014858",3,16014858,0.525584889732841,0.61286169375018,0.392082063755576
"chr03_16035446",3,16035446,0.180284793762425,0.829657990412709,0.82818245911599
"chr03_16067521",3,16067521,0.817226345405409,0.708812182786207,0.250222353039811
"chr03_16077170",3,16077170,-0.626604116077772,0.646629419530364,0.333628641467104
"chr03_16094221",3,16094221,0.272100132015453,0.642516011919225,0.672363939813056
"chr03_16222722",3,16222722,-0.635779772622982,0.95066053217388,0.50436198133922
"chr03_16328285",3,16328285,-0.421278521638669,0.751865842068662,0.575856331901008
"chr03_16425415",3,16425415,-0.146972831696345,0.584433814812101,0.801686251595986
"chr03_16598009",3,16598009,0.0223977554787211,0.827725641436238,0.978437695604667
"chr03_16742796",3,16742796,-0.345180554060661,0.616214154866041,0.57595672018131
"chr03_16742934",3,16742934,0.759531984335297,0.547412645114035,0.166740961057945
"chr03_16762626",3,16762626,0.23560203413146,0.791241071886597,0.766174553536953
"chr03_16834104",3,16834104,1.00517596823067,0.618546990977851,0.105628512785314
"chr03_17020278",3,17020278,0.444394639605036,0.597657980032793,0.457962030515272
"chr03_17681198",3,17681198,0.0611150038433976,0.778545851326292,0.937504888785402
"chr03_17682826",3,17682826,0.320271978278015,0.626332877237593,0.609639387407768
"chr03_17683519",3,17683519,-0.0877272827384559,0.655026816499485,0.893584938150162
"chr03_17760762",3,17760762,-2.00248259761145,0.855370984017384,0.02015266735522
"chr03_17883392",3,17883392,-1.14332620264554,0.758390145059948,0.133146354063409
"chr03_18072848",3,18072848,0.0990879449974074,0.744123907955596,0.894192132131135
"chr03_18085299",3,18085299,-0.121410292416357,0.612924581655033,0.843168596121959
"chr03_18260149",3,18260149,-0.773575805080782,0.732309391338878,0.292004489562803
"chr03_18649390",3,18649390,-0.219175009496666,0.632354721458579,0.729232982529647
"chr03_18748635",3,18748635,1.03545557868318,0.679483897130774,0.12902067125225
"chr03_18801960",3,18801960,0.888589323754786,0.775196298676842,0.252966858634575
"chr03_18855716",3,18855716,0.184039388926493,0.603715390836403,0.760782153392672
"chr03_188796",3,188796,-0.493863533434592,0.583916065235173,0.398625561747621
"chr03_19185395",3,19185395,-0.792804242481907,0.596781593657198,0.185445663491591
"chr03_19297286",3,19297286,0.335205362499153,0.643023917006013,0.602702624631918
"chr03_19311665",3,19311665,-0.145773689079817,0.529340214430345,0.783285494586688
"chr03_19352108",3,19352108,-0.942638446245269,0.758292055767963,0.215194872596315
"chr03_19416869",3,19416869,-0.457094575042206,0.526524263530577,0.386297037322987
"chr03_19446486",3,19446486,-0.0424820639120185,0.493451174470724,0.931474372590778
"chr03_19608123",3,19608123,-0.156311391951093,0.609855756750067,0.797959787943834
"chr03_19680656",3,19680656,0.0225010879728984,0.634241373162639,0.97173247698288
"chr03_19788412",3,19788412,0.22672116093355,0.565660824556722,0.688963532668248
"chr03_1980603",3,1980603,0.185409129844743,0.593916021023561,0.755208575438352
"chr03_19858345",3,19858345,-0.345366717560125,0.631589595978225,0.585073826882175
"chr03_19916009",3,19916009,0.188077432748912,0.838241183375325,0.822683324789794
"chr03_20024040",3,20024040,0.0197415269832106,0.538202463515286,0.970774122958931
"chr03_20127594",3,20127594,-0.189574795795451,0.539290120515766,0.725540848232296
"chr03_20265343",3,20265343,-0.99637297140459,1.00227714584566,0.321297667515656
"chr03_20314011",3,20314011,-0.339663134266715,0.618099660567564,0.583218773812858
"chr03_20394753",3,20394753,0.619335356267754,0.624508838382577,0.322461371048047
"chr03_20394777",3,20394777,0.759890993018658,0.83981237730789,0.366575509543429
"chr03_20423596",3,20423596,0.64097733610572,0.62787529009433,0.3084754096163
"chr03_20530043",3,20530043,-0.0818652403901723,0.462710749208589,0.8597351808527
"chr03_20671515",3,20671515,0.465275183722895,0.8388538253931,0.579712015209359
"chr03_2071465",3,2071465,-0.391803909618375,0.604084034677634,0.517300937540694
"chr03_20779590",3,20779590,0.523310014499316,0.824988383940653,0.526550004886878
"chr03_2086866",3,2086866,0.946800958192398,2.63757272111456,0.71997552205142
"chr03_21138363",3,21138363,-0.0158703087194141,0.61803996330496,0.979537853233263
"chr03_21216900",3,21216900,-0.878353492052611,1.38302512195187,0.526047557831923
"chr03_21234170",3,21234170,-0.990253061887188,1.32621099653199,0.456081104888267
"chr03_21257226",3,21257226,-0.944727113488852,1.08463987317592,0.384731863284485
"chr03_21318748",3,21318748,0.314141397606079,0.639342125692929,0.623684119844785
"chr03_21321809",3,21321809,1.0270772769594,0.608879679468013,0.093099773052244
"chr03_2135890",3,2135890,1.55704700212664,1.12554615667858,0.167999577912336
"chr03_21367467",3,21367467,-0.408717523276437,0.822183532302516,0.619622608182072
"chr03_21486841",3,21486841,-1.16115710323334,1.07875951090157,0.282974180179039
"chr03_21494094",3,21494094,0.0683245637252128,0.605534740989819,0.910268881422095
"chr03_21498939",3,21498939,1.16814426308258,0.839123396594488,0.165343680461423
"chr03_21558988",3,21558988,0.130478439272792,0.486727306065,0.78890257222939
"chr03_21710103",3,21710103,1.93337182886626,2.41943428190198,0.425122146598194
"chr03_21736763",3,21736763,0.632222616149022,0.430399781855826,0.14332996857461
"chr03_22122371",3,22122371,-0.239791758166859,0.578280583057314,0.678805694457826
"chr03_22122940",3,22122940,-0.0774406948488604,0.781613369934035,0.921169515772467
"chr03_22200638",3,22200638,-0.357504787134701,0.500369057056916,0.475711339860616
"chr03_22224976",3,22224976,-0.322418191178599,0.572984251331115,0.574231005806284
"chr03_22262677",3,22262677,-0.10680593977176,0.760475373326971,0.888440115743724
"chr03_22350599",3,22350599,-0.654721061532769,0.624558109830947,0.295690801700057
"chr03_22378574",3,22378574,-0.539397048852209,0.479909131139203,0.26229653512698
"chr03_22385281",3,22385281,-0.0883744882290785,0.499923370519735,0.859852260344943
"chr03_22498666",3,22498666,0.652288131000319,0.643924085250718,0.312214637369858
"chr03_22518995",3,22518995,0.104532046490704,0.850719327118895,0.902322027388275
"chr03_22579468",3,22579468,0.527724432931592,0.523820682218936,0.31486049025598
"chr03_22634300",3,22634300,-0.176287943685224,0.484488974857878,0.716320717420042
"chr03_22649934",3,22649934,0.429176370098617,0.802927320948252,0.593543042433626
"chr03_22777235",3,22777235,0.598534278016814,0.642516011983757,0.352625004803283
"chr03_23036162",3,23036162,-0.00456358305507365,0.87367621332615,0.995837216821004
"chr03_23040533",3,23040533,-0.143729585447772,0.946482753214457,0.87944383210358
"chr03_231817",3,231817,-0.947139602370612,0.442829542733413,0.0335872643555071
"chr03_23182913",3,23182913,1.09949588060141,1.03687244877511,0.290165192697374
"chr03_23226147",3,23226147,-0.715834020037505,0.485272136693057,0.141657231127952
"chr03_2326005",3,2326005,0.679105251160976,0.424202584738185,0.11088149592285
"chr03_2326859",3,2326859,-0.165712111866469,0.627993494833978,0.792130956433028
"chr03_23336652",3,23336652,0.47093363468116,0.793880759733388,0.553673648887637
"chr03_234609",3,234609,-0.336675473460375,0.427268482010091,0.431589281365074
"chr03_23513882",3,23513882,0.177649778549039,0.486095373222728,0.715128628246486
"chr03_23545981",3,23545981,0.160854078461313,0.63105359197728,0.799048089174444
"chr03_23566102",3,23566102,-0.288893601275788,0.634542525960978,0.649372591366916
"chr03_23787251",3,23787251,0.537554454309401,0.694570233782895,0.439825475124334
"chr03_2387535",3,2387535,-0.835350457124861,0.736667094326833,0.258086271378245
"chr03_2390250",3,2390250,-0.589991938679404,0.558640713986115,0.292109532684224
"chr03_23908438",3,23908438,0.500858162803553,0.462967799653519,0.280545860960374
"chr03_24008858",3,24008858,0.236334773431352,0.561331125344374,0.67416090457458
"chr03_24023545",3,24023545,-0.276531032831656,0.437840035464784,0.528338551151462
"chr03_24100225",3,24100225,1.08840424290932,0.583100899459883,0.063334531117862
"chr03_24149785",3,24149785,0.631169765362259,0.82795580370156,0.446710580883763
"chr03_24152717",3,24152717,-0.981138436551731,0.531980199510086,0.0665261877359937
"chr03_24237910",3,24237910,0.334152116259702,0.5583748555661,0.550184287119242
"chr03_24282918",3,24282918,1.00341907738797,0.496588111100502,0.0445703079656793
"chr03_24283868",3,24283868,-0.647025224225672,0.553742912617853,0.24392826607676
"chr03_2429369",3,2429369,-0.169370623395849,0.548396740876342,0.757739876393857
"chr03_24587987",3,24587987,0.197149979644223,0.604692177671977,0.744719010175627
"chr03_24798908",3,24798908,-0.188682565030604,0.56774951548522,0.739963760777933
"chr03_24828609",3,24828609,0.0618576961933286,0.64483664783025,0.923668186652684
"chr03_24929987",3,24929987,0.0189984859341621,0.959628128083731,0.984223238959889
"chr03_25020290",3,25020290,-0.961340776437908,0.640538420488387,0.134879810151232
"chr03_25106204",3,25106204,1.06678647941706,0.49994318056615,0.0340012454255703
"chr03_25109800",3,25109800,1.51611383605777,0.613630746077057,0.0142688553406906
"chr03_25172363",3,25172363,-0.9934167865826,0.665732050498836,0.137121854724382
"chr03_25362402",3,25362402,-0.543228189739409,0.658945440755088,0.410640061365313
"chr03_25391239",3,25391239,-0.0988944036839712,0.602690275278275,0.869817256752295
"chr03_25797916",3,25797916,-0.869415669372628,0.533425731013802,0.104606455210618
"chr03_25822539",3,25822539,-0.947565608604336,0.517871118984779,0.0686877663365101
"chr03_25840451",3,25840451,-1.05350078135291,1.01470132000437,0.300336741819928
"chr03_25855640",3,25855640,0.00224802634127741,0.597805324572012,0.997003109213669
"chr03_25878516",3,25878516,1.19137077743477,0.96861995011673,0.220066142308972
"chr03_26108585",3,26108585,-0.955117534113725,0.638512061523877,0.136173225150466
"chr03_26175681",3,26175681,-0.230448996469931,0.583383565753873,0.693222383706323
"chr03_26321769",3,26321769,-0.157066026658583,0.785967154740036,0.841798013573721
"chr03_26455552",3,26455552,-0.166856305945956,0.389985652874467,0.66919083528179
"chr03_26753134",3,26753134,0.19936304151139,0.724441863507093,0.783432914695145
"chr03_26876027",3,26876027,0.11244837130964,0.342817701046258,0.74322467768168
"chr03_26956585",3,26956585,-0.460369627221382,0.615666982659138,0.455431170177392
"chr03_27153171",3,27153171,-0.632702214086748,0.60267597937525,0.29498984442298
"chr03_27199618",3,27199618,-0.440911015347353,0.554549399383028,0.427452157234109
"chr03_27267154",3,27267154,0.119778089180272,0.857519673155555,0.889045053909085
"chr03_27318643",3,27318643,0.468780337311443,0.747477812730471,0.531232909928343
"chr03_27443464",3,27443464,0.165776732789112,0.556852967120812,0.766220107883442
"chr03_27451048",3,27451048,0.474909072397566,0.610304087002172,0.43734319534291
"chr03_27705394",3,27705394,0.502523227846041,0.88161451162043,0.569276143234717
"chr03_27787737",3,27787737,-0.466927453571202,0.645591307999801,0.470316412671916
"chr03_27856820",3,27856820,1.43216766773935,1.2095926373243,0.237729398476927
"chr03_2796562",3,2796562,-0.907484672192268,0.674631867474405,0.180005466446428
"chr03_28040450",3,28040450,-0.7284618067672,1.54856688094348,0.63854322925954
"chr03_28049136",3,28049136,1.10454530479888,1.27752630892165,0.388232717529144
"chr03_28103996",3,28103996,0.57887570021677,0.732091272198221,0.429989714846065
"chr03_28139772",3,28139772,-0.425754979451767,0.583279700251044,0.466233264851312
"chr03_28148031",3,28148031,0.442116008278958,0.807052561168764,0.584392111757792
"chr03_28176415",3,28176415,-0.488829066810297,0.679927737471358,0.472964213696859
"chr03_28198260",3,28198260,0.0967036963229475,2.53062949364337,0.969553410292728
"chr03_28205324",3,28205324,0.1605116859605,0.665256708628219,0.80957190725137
"chr03_28230820",3,28230820,-0.317086022484148,0.574822035269219,0.58178376487101
"chr03_28285139",3,28285139,0.440133474801144,0.607977599264481,0.469902794103284
"chr03_2834597",3,2834597,-0.29274021566188,0.449618566848539,0.515692954614037
"chr03_2842724",3,2842724,-0.153566919864318,0.638929014639699,0.81028970078221
"chr03_28556095",3,28556095,1.16120468692168,0.747168229983328,0.121635375385083
"chr03_28578078",3,28578078,-0.823299223301149,0.578259470861317,0.155980919259672
"chr03_28614221",3,28614221,-0.734809617345888,0.584398884256087,0.209994103898027
"chr03_28849698",3,28849698,-0.174580823464623,0.714539045344963,0.807213153327734
"chr03_28869262",3,28869262,0.538935573688946,0.756269953308787,0.476858816303002
"chr03_2909214",3,2909214,0.0387396185778357,0.540379385379546,0.942916147206139
"chr03_2910309",3,2910309,1.28804800546956,0.874415709582891,0.142216844605929
"chr03_29114058",3,29114058,-0.264373645593793,0.384351834446615,0.492300131901394
"chr03_2918766",3,2918766,-0.340433080941466,0.846565601079839,0.687988416230188
"chr03_2922524",3,2922524,-2.40743824332094,2.14159036084614,0.262220730601868
"chr03_2982329",3,2982329,-0.250089282308977,0.472726674202738,0.597331568018421
"chr03_29900229",3,29900229,-0.73146642951599,0.615228362251137,0.235789094772839
"chr03_29931262",3,29931262,-1.89702672585247,0.722422934671717,0.00926852500340346
"chr03_29944188",3,29944188,-0.826678819394147,2.95901747546643,0.780227282687779
"chr03_29957677",3,29957677,-0.823397145531231,0.566509332245565,0.147568564005395
"chr03_30003457",3,30003457,-0.347023281893485,0.631942011431158,0.58348606247692
"chr03_30079439",3,30079439,-1.02010542873268,0.805421622688253,0.206700103059199
"chr03_30117163",3,30117163,1.9017985279238,1.84060835418555,0.302661191896536
"chr03_30380429",3,30380429,0.615047918006837,0.724568583983808,0.39691936848539
"chr03_30501080",3,30501080,-1.0273545431296,0.901204591747501,0.255575211905058
"chr03_30583644",3,30583644,0.00880431827371808,0.587140238947751,0.988050001116902
"chr03_30666810",3,30666810,-1.37098407816484,0.727247093280294,0.0607683417865576
"chr03_30746353",3,30746353,-0.514866099296,0.453254996337304,0.257262201809333
"chr03_30916675",3,30916675,-1.18084717835245,0.718612827050829,0.101810372974452
"chr03_30990591",3,30990591,0.579252874269059,0.851025932111026,0.496830659899887
"chr03_31181670",3,31181670,0.0703154541915865,0.518611930641011,0.892278240840041
"chr03_31294382",3,31294382,-1.72783942708861,0.59120360877031,0.00384609769644046
"chr03_31530910",3,31530910,0.590560091488214,0.829895034104573,0.477486061753955
"chr03_31558060",3,31558060,0.109706950583075,0.602126869330411,0.85559979338796
"chr03_31609667",3,31609667,0.0599285779936736,0.801068009007503,0.940435422404908
"chr03_31635927",3,31635927,-0.76010561195659,0.516206486464988,0.142366395594698
"chr03_31638842",3,31638842,-0.489094827514691,0.497181481103461,0.326361913466688
"chr03_31675698",3,31675698,-0.577328096763353,0.775040438066629,0.457152909708096
"chr03_31711899",3,31711899,0.602719836556048,0.670724955390372,0.36987536660876
"chr03_31772697",3,31772697,-2.83294473943829,0.763451995342478,0.000263790800534214
"chr03_31805256",3,31805256,0.923248082650389,1.50512573689078,0.54026461790954
"chr03_3182265",3,3182265,0.601754792471638,0.783669999461462,0.443416267671319
"chr03_31898795",3,31898795,1.1209945132357,0.920591167718846,0.224689100016482
"chr03_31964523",3,31964523,-0.490498996026076,0.679969267604488,0.471482388608596
"chr03_3210137",3,3210137,0.155578042898242,0.859546735537805,0.856539608191352
"chr03_3211100",3,3211100,0.534236974819578,0.812967406361832,0.511797509708652
"chr03_32218554",3,32218554,-1.85599013963474,2.99954820497081,0.536737899635754
"chr03_3226157",3,3226157,0.525131559370209,0.668695200106234,0.433145754762628
"chr03_32312317",3,32312317,-1.27321498583228,0.74454422560499,0.0887110231966145
"chr03_32355634",3,32355634,0.394492411590363,0.696716840612084,0.571842843263361
"chr03_3240274",3,3240274,0.808233773404964,0.419435295784856,0.0553154713926493
"chr03_32439683",3,32439683,0.46944524330786,0.853526201255025,0.58289095936651
"chr03_3299930",3,3299930,0.199091846384306,0.607342703911077,0.743378760900456
"chr03_33039768",3,33039768,0.118970982044175,2.02536885436531,0.95321394972504
"chr03_33200603",3,33200603,-1.34817399862732,1.02656742774738,0.190500419868128
"chr03_3539273",3,3539273,-0.363056363195483,0.485163686411421,0.455094278927222
"chr03_3602025",3,3602025,0.714749520247551,0.544145364551562,0.19041859965034
"chr03_3745166",3,3745166,-0.219775598350736,0.771142445245147,0.77592105836264
"chr03_3801126",3,3801126,0.053109742900574,0.469334430718115,0.910010526712836
"chr03_3816185",3,3816185,0.395714843606832,0.675055634583591,0.558364547224186
"chr03_3881550",3,3881550,1.04214632128969,1.3789587753087,0.450634822599927
"chr03_3961405",3,3961405,-0.115950601684204,0.499402038293642,0.816622009540537
"chr03_4013990",3,4013990,-0.0778616426889585,0.474412687489272,0.869790597109667
"chr03_4018357",3,4018357,0.510632738084524,0.490651987981322,0.299184051589418
"chr03_409546",3,409546,-1.4134938512849,0.828342098325484,0.0893886549637872
"chr03_4104144",3,4104144,0.11300865880375,0.604168345060544,0.851800811876572
"chr03_4355594",3,4355594,0.189253639385413,0.592710525830248,0.749810469210412
"chr03_4449413",3,4449413,0.394227108021937,0.750486365020224,0.59992416130747
"chr03_450475",3,450475,0.0439496271629309,0.716204868237941,0.951126383000681
"chr03_4545345",3,4545345,-0.317729870831329,0.666421099529324,0.634014366045002
"chr03_4546886",3,4546886,5.1850055446248,3.17522741771919,0.103955668943658
"chr03_4548052",3,4548052,0.411366411947029,0.727809635802734,0.572524723584244
"chr03_4623015",3,4623015,0.299587305090597,0.507138223544554,0.555320311853786
"chr03_4634076",3,4634076,0.723824019442873,0.795292728920803,0.363779900917932
"chr03_4726300",3,4726300,1.10798848761686,0.757106981675702,0.144818318235971
"chr03_4824885",3,4824885,0.18980941102302,0.722592489401519,0.793052388631595
"chr03_4895555",3,4895555,1.23324931297157,1.37179118792864,0.369664324493736
"chr03_4910420",3,4910420,0.227436039555755,1.0290447813139,0.825291183336994
"chr03_4946328",3,4946328,-0.330772807203516,1.05522015229759,0.754235433399449
"chr03_500418",3,500418,-0.605967986600774,0.474667189337533,0.20312773164768
"chr03_5058299",3,5058299,0.724696825587898,0.957961439534476,0.450186009282454
"chr03_5059394",3,5059394,-1.29825909138884,0.823726993205821,0.116491574997948
"chr03_5274501",3,5274501,-0.358144333596101,1.20938031622521,0.767412675496203
"chr03_5295902",3,5295902,-0.0269806928644982,0.529036828059774,0.959373593833103
"chr03_5318681",3,5318681,-1.24537656986547,0.762522220147498,0.103897262046008
"chr03_5322779",3,5322779,1.00382632100877,0.750986037942501,0.182753838054997
"chr03_5328864",3,5328864,0.17834454295496,0.726706542883537,0.806371563227535
"chr03_5372601",3,5372601,0.108684313769061,0.687856732936898,0.874603110595096
"chr03_5396383",3,5396383,0.929972282682684,0.969546596707968,0.338554241629714
"chr03_5397676",3,5397676,-0.282261135653016,0.51781253439044,0.586253031040624
"chr03_5425700",3,5425700,-0.112706815216512,0.503632020732639,0.823136744435139
"chr03_5436624",3,5436624,0.991589355262022,0.88350390654659,0.262982621529132
"chr03_5440336",3,5440336,-0.133686679623452,0.67680518007302,0.843604238097271
"chr03_5443043",3,5443043,0.232689593184816,0.560664209058977,0.678541423281411
"chr03_5604594",3,5604594,0.611021823518286,0.585731852795869,0.298048975780203
"chr03_5653590",3,5653590,0.0833793536965004,0.972814019513846,0.931777901429812
"chr03_5654207",3,5654207,-0.402040980094171,0.918972820849224,0.662199637876659
"chr03_5766779",3,5766779,0.70204700790714,0.585940331733299,0.232188379124896
"chr03_5788535",3,5788535,0.0971661231189955,0.801783106390287,0.903656738490239
"chr03_5840660",3,5840660,-0.262655719189112,0.418638390186488,0.531065935919061
"chr03_5864214",3,5864214,0.138015423040542,0.808740117605157,0.86465716148434
"chr03_5914287",3,5914287,0.485055680877508,0.803173264628289,0.546536769379733
"chr03_6005077",3,6005077,-0.346847172824823,0.642292587083682,0.589751320037584
"chr03_6346944",3,6346944,0.116659732533947,0.931419052327483,0.900444195629358
"chr03_6385523",3,6385523,-0.690033696007845,0.544660743193051,0.206572596691386
"chr03_6422536",3,6422536,-0.46514086109795,0.610731030113708,0.447133283372104
"chr03_6473125",3,6473125,-0.964356779693048,0.981038260884159,0.326724599752975
"chr03_6616577",3,6616577,-0.129616428076929,0.485074260095663,0.789566438622452
"chr03_6723946",3,6723946,-0.137323550672107,0.478726944066833,0.774504855993794
"chr03_6915355",3,6915355,0.322848093125117,0.600591624769487,0.591448838626237
"chr03_6940830",3,6940830,-3.34824154294165,3.01891714798627,0.268643340795315
"chr03_7012355",3,7012355,-0.0925698255978205,1.35881939009325,0.94574988811171
"chr03_7052602",3,7052602,0.416646574920975,0.519376166539448,0.423328033026209
"chr03_7058063",3,7058063,-0.00601366323462571,0.726629609632805,0.99340444479262
"chr03_7086940",3,7086940,0.0433386399331681,0.758216826618728,0.954472411273626
"chr03_7128899",3,7128899,0.0593336016428339,0.538174129280784,0.912315058473567
"chr03_7184618",3,7184618,0.678603353966608,0.421801641729548,0.10913661552913
"chr03_7186981",3,7186981,0.704431866302372,0.469475541821911,0.134974685624315
"chr03_7283460",3,7283460,0.802838609668811,0.434684660585927,0.0661422249484641
"chr03_7302854",3,7302854,-0.716402078063254,0.658736995170732,0.278027824340737
"chr03_7303815",3,7303815,-0.114481242610225,0.638554152812643,0.857886733630702
"chr03_7386448",3,7386448,0.292785418782842,1.15864249339985,0.800746104540999
"chr03_7407317",3,7407317,-0.413017998019285,0.485798381167535,0.396177458237202
"chr03_7448985",3,7448985,0.175903576436497,0.548103107723907,0.748576930751869
"chr03_750431",3,750431,-0.291748939734717,0.402607349963574,0.469462756245696
"chr03_7522300",3,7522300,-1.27066929406996,0.5094326212516,0.0133813862178069
"chr03_753585",3,753585,-0.109479897977849,0.594735301370994,0.854124476709909
"chr03_7536799",3,7536799,0.227856752804939,0.728071210890223,0.754617696565496
"chr03_7559034",3,7559034,-0.00856961026858016,0.656952029457624,0.989604500385431
"chr03_7571318",3,7571318,1.77545595496804,0.744283398052237,0.0179340203311502
"chr03_7571563",3,7571563,1.08337812700964,0.506203792188323,0.0334753820800524
"chr03_7589135",3,7589135,-1.34899786575642,0.479221509247627,0.00533547136924739
"chr03_7611870",3,7611870,0.0305293690776125,1.52888203508415,0.984087252066602
"chr03_7674571",3,7674571,0.0901580650966025,1.6539071254024,0.956578208598203
"chr03_7678916",3,7678916,-1.06767278808658,0.490772838411393,0.0306939277850191
"chr03_7759782",3,7759782,-1.20102528280106,0.44641156163482,0.00770265370775943
"chr03_7772984",3,7772984,1.64356573618932,0.584004737029272,0.00534628958472179
"chr03_7796230",3,7796230,-1.05577099224112,0.445937504520089,0.0188026543100905
"chr03_7811915",3,7811915,-1.21047134659455,0.741578896137959,0.104096009282105
"chr03_7856579",3,7856579,-2.07094595549233,0.873759145203574,0.0186731673313248
"chr03_7859787",3,7859787,0.441514891591908,0.551837641291667,0.424555200781695
"chr03_7860047",3,7860047,-0.717749125758246,0.758030134785287,0.344782586374223
"chr03_7864765",3,7864765,0.456825504935551,0.561033970621448,0.416407466743957
"chr03_7864777",3,7864777,-0.356149888634747,0.509429780444579,0.485243002714768
"chr03_7883246",3,7883246,-0.616204388083531,0.519907906666347,0.237251763107326
"chr03_7883863",3,7883863,0.550136363635715,0.527947384485164,0.29857961410942
"chr03_792127",3,792127,-0.429202408564834,0.476939051410613,0.369184218469064
"chr03_7951326",3,7951326,-0.651230884274497,0.564188170893696,0.249678993309959
"chr03_8050456",3,8050456,-1.78642186262937,0.772132567138616,0.0216422831935321
"chr03_808764",3,808764,0.12126022023449,0.597491799101616,0.839368816630678
"chr03_8123164",3,8123164,-0.549758808312447,0.529243946459883,0.300092899438632
"chr03_8242901",3,8242901,-1.76067976443414,0.760138370121894,0.0214948465296632
"chr03_8294130",3,8294130,0.68223330631622,0.56797756920553,0.231022162328773
"chr03_8306305",3,8306305,-0.272166549139968,0.776735932134833,0.726386457525872
"chr03_8310745",3,8310745,-1.03717112222563,0.67805079695442,0.127590508143949
"chr03_8431236",3,8431236,-0.0118025203069578,0.529867140882098,0.98224985046076
"chr03_846774",3,846774,-0.728702419173089,0.539973085455813,0.178603826094755
"chr03_8801367",3,8801367,0.177946438721676,0.499428667657293,0.721968574335125
"chr03_8842747",3,8842747,1.62191315098971,0.773560011897705,0.0372015633670185
"chr03_8934458",3,8934458,0.797414947327866,0.838911239328008,0.342917504975118
"chr03_8935487",3,8935487,2.23989637884824,1.38263052477461,0.106706397460979
"chr03_8948417",3,8948417,-1.67186831245795,0.691903167675764,0.0165206129243596
"chr03_8953417",3,8953417,1.47195625190994,0.730239927198109,0.0450859557998103
"chr03_8969200",3,8969200,-1.253116417711,0.842822514056125,0.138543914323295
"chr03_8996880",3,8996880,0.41234195435095,0.743768265443229,0.579889663917496
"chr03_9079668",3,9079668,0.606309799172919,0.551387649093369,0.272744584427552
"chr03_9182171",3,9182171,-0.439354392842404,0.563432181166462,0.436384676031213
"chr03_9238670",3,9238670,-0.614427791450254,0.493333392941727,0.214330456413449
"chr03_9355194",3,9355194,-0.781917031331204,0.509223726278289,0.126143193823629
"chr03_9438089",3,9438089,-0.468205953319625,0.668913557952408,0.484722379144285
"chr03_9530058",3,9530058,-0.499224361776101,0.873810943851306,0.568386095108901
"chr03_9697826",3,9697826,0.173948356220734,0.533428354197731,0.744672584358017
"chr03_9729108",3,9729108,0.529619798323722,0.581671732683595,0.363581139189854
"chr03_9766720",3,9766720,-0.390282018458265,0.63704434392273,0.540764634309465
"chr03_983968",3,983968,-0.377030813309148,0.571441285971998,0.510101866098385
"chr04_1015336",4,1015336,-0.452343298856874,0.553563856710714,0.414757212081364
"chr04_10201069",4,10201069,-0.151509488737972,0.565315494636553,0.788951959901938
"chr04_10207323",4,10207323,0.224018068277005,0.622938552749712,0.719491318935119
"chr04_10251137",4,10251137,-0.148329427816975,0.881197516359063,0.866485676124225
"chr04_10251505",4,10251505,1.44947040862115,0.661675779002165,0.0295653758951972
"chr04_10255496",4,10255496,0.088891756557075,0.600685151679471,0.882495434611309
"chr04_10340200",4,10340200,0.440152183772057,0.740908916695609,0.553095329975235
"chr04_10367500",4,10367500,0.575540919472701,0.91872918906038,0.531688463366604
"chr04_10399180",4,10399180,-0.294477752541297,0.774922763969767,0.704317254523872
"chr04_10399669",4,10399669,-0.317729762830226,0.768472496450361,0.679688324028204
"chr04_10400684",4,10400684,-0.0717507052627298,0.79079279736935,0.927790314246204
"chr04_10450933",4,10450933,0.500298436798602,0.457217935649291,0.275092989167112
"chr04_10493198",4,10493198,0.569540538704814,0.604073970397804,0.346834764030173
"chr04_10518975",4,10518975,-0.018822092274263,0.604254244191484,0.975179646613325
"chr04_10594404",4,10594404,0.486408455611411,0.632666390180128,0.442850039442389
"chr04_10595695",4,10595695,0.080497859963657,0.531618945551421,0.879787551246015
"chr04_10701657",4,10701657,-0.188623518569671,0.790442010286307,0.811621592914236
"chr04_10750938",4,10750938,0.119000321376745,0.629999101333682,0.850359146533413
"chr04_10909774",4,10909774,-0.703113149902492,1.18393690111967,0.553224416960877
"chr04_10926116",4,10926116,0.333031850988078,0.504796036081656,0.510136309816528
"chr04_10970422",4,10970422,-0.245358781750724,0.630976718904634,0.697771460837317
"chr04_11143852",4,11143852,-0.202689056732197,1.12335957664562,0.856985655083276
"chr04_11222087",4,11222087,-0.187952295468619,0.527799394690232,0.722113978864259
"chr04_11292648",4,11292648,0.593462091239218,0.541751751873925,0.274556521458147
"chr04_11312021",4,11312021,0.424565570406031,0.490276037756754,0.387479601566631
"chr04_11374272",4,11374272,0.539708484993412,0.607354233445768,0.375208544726109
"chr04_11469802",4,11469802,0.0400513003873471,0.694819972089379,0.954087274112169
"chr04_11563778",4,11563778,1.44160072336217,1.9570156724834,0.462156608371967
"chr04_11605881",4,11605881,-0.0912170829979004,0.583815525614057,0.875989475829684
"chr04_11671692",4,11671692,-0.448634636391034,0.992542991920919,0.651725157603216
"chr04_11724660",4,11724660,-0.452028804589531,0.817357093602651,0.580817962878136
"chr04_11806472",4,11806472,-0.404081477548516,0.624818344184159,0.518510529492976
"chr04_11968548",4,11968548,-0.127412182451849,0.752393697424569,0.865688012957709
"chr04_1268887",4,1268887,0.125342476841524,0.537673625510736,0.815892092715103
"chr04_12729683",4,12729683,0.432003147587153,0.570307525079724,0.449592585010125
"chr04_1288265",4,1288265,0.0455282961363537,0.915660440773097,0.960390668208056
"chr04_12962635",4,12962635,1.39754098173546,0.965995776118208,0.149440849539122
"chr04_1322698",4,1322698,1.14423937378984,0.739300166531504,0.123171042283441
"chr04_1337924",4,1337924,-0.697683857342383,0.675938712150509,0.303162891062377
"chr04_13423957",4,13423957,0.114214474980656,0.624422653824076,0.855040951792958
"chr04_13462846",4,13462846,-0.637951151741447,0.641345927116055,0.32100754982528
"chr04_13529219",4,13529219,0.308476903411474,0.68070537383048,0.65088588910693
"chr04_13533082",4,13533082,0.658143569689656,0.695708706734678,0.345218214160132
"chr04_13684804",4,13684804,0.961540857166312,0.734467222327201,0.191888049826939
"chr04_13847710",4,13847710,0.436084363232169,0.578620562139388,0.45188445921967
"chr04_1392212",4,1392212,-0.332914135694779,0.424727555114096,0.434010708642203
"chr04_15073878",4,15073878,-0.213928807884372,0.578911452035657,0.712095127672901
"chr04_15133085",4,15133085,-0.0415076339886582,0.995074810016953,0.966766502116066
"chr04_15207687",4,15207687,-0.473755718775806,0.940913700348848,0.615128860295395
"chr04_1521694",4,1521694,-0.229811376942791,0.582976841816354,0.69382535415844
"chr04_15442203",4,15442203,-0.0145382611596574,0.578122595544494,0.979960962246548
"chr04_15510727",4,15510727,-0.0991471627697251,0.546503455979571,0.856209716366989
"chr04_15538835",4,15538835,0.0536798396525455,0.708641740280389,0.93968883968207
"chr04_15545878",4,15545878,0.130711960163694,0.664803874626594,0.844314483251902
"chr04_15582297",4,15582297,-0.040007799950331,0.772232264409431,0.958730244148687
"chr04_15596623",4,15596623,-0.0510639859129185,0.608150422059935,0.933162290102089
"chr04_15782164",4,15782164,-0.692683937410834,0.654244376066538,0.290910952612233
"chr04_15967305",4,15967305,-0.7007606200346,0.655162190725276,0.286010577917414
"chr04_15970703",4,15970703,0.0462227484195807,0.503065820883777,0.926878062311916
"chr04_16352399",4,16352399,0.0590897607950183,0.625865316951454,0.924869922212939
"chr04_16401343",4,16401343,0.0807030230877785,0.630130038270404,0.898211565696316
"chr04_16554927",4,16554927,0.298662244432762,0.790294879075784,0.705871990968183
"chr04_16594798",4,16594798,0.347533369115808,0.732332529894119,0.635589082753934
"chr04_16697853",4,16697853,0.446235512601675,0.848425006009382,0.599464892297302
"chr04_16759174",4,16759174,0.283705651362482,0.616646114201438,0.645929135248163
"chr04_16793581",4,16793581,0.235631898402914,0.623017029247416,0.705650507854625
"chr04_16821154",4,16821154,0.680997181731527,0.950224389737116,0.474362900457606
"chr04_16828066",4,16828066,0.12326228777826,0.508081593476492,0.808546145144196
"chr04_16836542",4,16836542,0.508069369002186,0.490607839314354,0.301566981415367
"chr04_16976679",4,16976679,-0.303338040472966,0.580073795878343,0.601566437366424
"chr04_1704199",4,1704199,0.0422916293427136,0.581074089497607,0.94204803708487
