"SNP","Chr","Pos","Effect","SE","DM_NIRS.FarmCPU"
"chr01_10004826",1,10004826,0.459641480604034,0.372060393244724,0.218154846090727
"chr01_10151663",1,10151663,-0.275838042547093,0.473152095357755,0.560573740293191
"chr01_10367331",1,10367331,0.519305135462787,0.564336972723686,0.358591595234071
"chr01_10386693",1,10386693,-0.528688639145429,0.353338174430596,0.136184141832654
"chr01_10394249",1,10394249,-0.270743226708987,0.578826234092606,0.640483793119484
"chr01_10459214",1,10459214,-0.00242589452533082,0.281660894275386,0.993136764634854
"chr01_10500903",1,10500903,0.0684650397514588,0.337527311183066,0.839467122731982
"chr01_10507110",1,10507110,-0.179129419325818,0.503693062606812,0.722496614234259
"chr01_10864521",1,10864521,-0.0177489176213612,0.382361550973363,0.963023154910103
"chr01_10866174",1,10866174,0.311961597373966,0.526718203044861,0.55434616317455
"chr01_11074216",1,11074216,0.178402021126331,0.439914429867843,0.68552217648839
"chr01_11125873",1,11125873,-0.250461057736004,0.373244919510825,0.502983130584403
"chr01_11456355",1,11456355,0.344317954760712,0.279367806830863,0.219235072401792
"chr01_11460558",1,11460558,0.300467934350777,0.549071122207381,0.584840434086473
"chr01_11617274",1,11617274,0.930059521612634,0.843970584351815,0.271804162621662
"chr01_11671587",1,11671587,0.227495701734213,0.360026451591819,0.528193918629991
"chr01_1170574",1,1170574,-0.0983661101596738,0.346544016541302,0.776824340703468
"chr01_11706644",1,11706644,-0.00201834804325074,0.298580303418559,0.994613328302335
"chr01_1203737",1,1203737,0.230979231350744,0.391843285547016,0.556222520719506
"chr01_1205059",1,1205059,-0.682731267508757,0.523911833865732,0.194047493830935
"chr01_12130342",1,12130342,-0.746650171053432,0.3897345682931,0.056839560609457
"chr01_12149915",1,12149915,-0.509595593215252,0.30913581172273,0.100853780878859
"chr01_12436835",1,12436835,0.65849056391383,0.360125609779594,0.0689863985151541
"chr01_12557779",1,12557779,0.18098960813569,0.483196435785229,0.70838514994033
"chr01_12639562",1,12639562,-0.159003176650799,0.424588328766143,0.708444179320452
"chr01_12677718",1,12677718,-0.419082412390722,0.307649968813355,0.174688574846559
"chr01_12691348",1,12691348,-0.529777440396401,0.375945086084334,0.160356021989985
"chr01_12887212",1,12887212,-0.0376233906522003,0.372219758478041,0.919590995805326
"chr01_12898407",1,12898407,-0.621520405809747,0.368144432391714,0.0929453125417538
"chr01_13312315",1,13312315,0.298744736779142,0.480762862263056,0.535056639460309
"chr01_13355185",1,13355185,0.482908682337268,0.3882644061447,0.215064976672286
"chr01_13635364",1,13635364,0.900495133897493,0.414616732421969,0.0310597954149349
"chr01_1371423",1,1371423,-0.433196322124786,0.4273711930571,0.312002578485653
"chr01_13729398",1,13729398,-0.104962712890938,0.347264376765471,0.762775855173152
"chr01_13759524",1,13759524,-0.320418037911168,0.50365084116739,0.52539050373749
"chr01_13917360",1,13917360,-0.0363478501762984,1.44449744339971,0.979950441253493
"chr01_14073951",1,14073951,0.879993700854072,0.359897152215815,0.0153589431817573
"chr01_14127574",1,14127574,0.13893702505078,0.561638316759446,0.804873241246188
"chr01_14390149",1,14390149,0.100512450264361,0.562787873926498,0.858437370727657
"chr01_14405039",1,14405039,0.607457306965841,0.377813923991684,0.109475792395849
"chr01_14405646",1,14405646,-0.445447114126708,0.327061288671967,0.174763227651659
"chr01_15115460",1,15115460,-0.110770407689131,0.420662116204624,0.792576120023559
"chr01_1513509",1,1513509,-0.181359257867996,0.330228793711763,0.583495149290308
"chr01_1520463",1,1520463,0.569991429155607,0.573879369752,0.321818625538914
"chr01_15295957",1,15295957,0.679218446932225,0.396619072300304,0.0883741653564331
"chr01_156276",1,156276,-0.0908172092338759,0.335288451849984,0.786780052071082
"chr01_15661908",1,15661908,-0.582438239995255,0.330455366820001,0.0795301240527531
"chr01_15723481",1,15723481,-0.644646237150212,0.322253850174601,0.0468270289835848
"chr01_15768615",1,15768615,1.02115011669525,0.354510135902007,0.00441063463871603
"chr01_15770973",1,15770973,1.13246225294529,0.663411602324132,0.0893924160861135
"chr01_15774616",1,15774616,-0.466319181691659,0.322762482427779,0.150109769469831
"chr01_16030996",1,16030996,-0.38390362386059,0.364568522772113,0.293614566526697
"chr01_16031834",1,16031834,-0.199846747490142,0.311219054635047,0.521527689662432
"chr01_16054748",1,16054748,-0.564841357676784,0.338440403960161,0.096714984971717
"chr01_16102261",1,16102261,0.117422286171873,0.330081657210553,0.722418103685781
"chr01_16273146",1,16273146,-1.0290207890738,0.572211429479871,0.0736568704467102
"chr01_1633957",1,1633957,0.738253564190018,0.453631315838709,0.105243971854342
"chr01_16582507",1,16582507,-0.0915037472810027,0.343043305902586,0.78994751497053
"chr01_16593540",1,16593540,0.756021041130623,0.368221703539248,0.0413777861627638
"chr01_16826063",1,16826063,0.523737909143392,0.366705880593751,0.154811029153932
"chr01_16826687",1,16826687,0.28502337503636,0.375995053053107,0.44932640460963
"chr01_1707068",1,1707068,-0.439893852639273,0.523822117681124,0.402051317598683
"chr01_17076548",1,17076548,0.804497754939632,0.370262358993173,0.0309906480502154
"chr01_17109043",1,17109043,0.717283936566105,0.375290039356622,0.0574203322296091
"chr01_17120007",1,17120007,-0.400957175555604,0.335138210138827,0.232980933587981
"chr01_17225829",1,17225829,0.368509331221503,0.491439172515231,0.454235122087164
"chr01_17457946",1,17457946,0.684628289868499,0.388122438614928,0.0792905050816513
"chr01_1762683",1,1762683,0.152546006989724,0.645426930132006,0.813407428989203
"chr01_17732729",1,17732729,0.83610877804557,0.389259281232545,0.0329389940305058
"chr01_17785660",1,17785660,-0.471151726706296,0.436648540746733,0.281898956891192
"chr01_17802399",1,17802399,0.133190951843687,0.553380527131426,0.81004877701079
"chr01_1783281",1,1783281,-0.0581634511745506,0.381065466670378,0.878843324127992
"chr01_17868655",1,17868655,0.719032208530621,0.569764628988653,0.20844763257359
"chr01_17974096",1,17974096,-0.648693879619259,0.572274908013544,0.25836704950371
"chr01_18226286",1,18226286,-0.913778570227237,0.497728810956814,0.0678803094110839
"chr01_18227727",1,18227727,0.705457854787994,0.387974722816084,0.0705357173452135
"chr01_1830667",1,1830667,0.538732998202704,0.580321195128965,0.354369392125952
"chr01_18542556",1,18542556,-0.213606155207742,0.637653722860287,0.737990783109042
"chr01_1861268",1,1861268,-0.498026518749271,0.528936535004218,0.347570116389048
"chr01_1885535",1,1885535,0.503582275001236,0.585289231668725,0.390615032235258
"chr01_18926892",1,18926892,-0.328151769785677,0.386086320591292,0.396387965508513
"chr01_19291098",1,19291098,0.732936494787282,0.702074001485517,0.297783689274488
"chr01_19295910",1,19295910,-0.679937288234669,0.523097324446688,0.195178303734603
"chr01_19391419",1,19391419,0.657609859189051,0.710348691702246,0.355705257224779
"chr01_19425881",1,19425881,-0.0258042995569667,0.453610418139022,0.954693281120813
"chr01_19491634",1,19491634,-0.083610787439568,0.405691878504376,0.836930075621765
"chr01_19492635",1,19492635,-0.093856570141412,0.38699524633924,0.80862459958634
"chr01_1976428",1,1976428,0.154215589893482,0.333719248650692,0.644511111225371
"chr01_19789358",1,19789358,-0.922830091360765,0.387482374319578,0.0181897438524728
"chr01_19790314",1,19790314,-0.38873739575979,0.488024539570977,0.426669593865838
"chr01_19794182",1,19794182,-0.166387931639122,0.377223537238957,0.659634603865969
"chr01_2004082",1,2004082,0.0287479617235249,0.285891553240686,0.920005603002079
"chr01_20050245",1,20050245,-0.54490578875351,0.421340722437812,0.197433402207626
"chr01_20088182",1,20088182,-0.325440636312237,0.366924392140523,0.3761916502335
"chr01_20138138",1,20138138,-0.503068428533766,0.363496172586104,0.16793304737507
"chr01_20322508",1,20322508,0.846600292733228,0.575151243592501,0.142627080825906
"chr01_20330444",1,20330444,-0.170251615263624,0.492514908342105,0.729953502587989
"chr01_20331158",1,20331158,0.526483708688602,0.86302475173007,0.542535219925071
"chr01_20489190",1,20489190,0.65430052055035,1.03846413493228,0.529381795716745
"chr01_20509239",1,20509239,0.212460943270344,0.346983193279719,0.541039416296889
"chr01_20530953",1,20530953,0.221538305694366,0.688794581697468,0.748072583984832
"chr01_20636109",1,20636109,-0.544435530779595,0.409020619025257,0.184704012780623
"chr01_20667722",1,20667722,0.000814210269254545,0.492206980223938,0.998681811444036
"chr01_20767259",1,20767259,-0.442938352397391,0.575584146915487,0.442491100579608
"chr01_20770961",1,20770961,-0.472176273164109,0.532360777413013,0.376188455657601
"chr01_20871256",1,20871256,0.0668412916243142,1.07685612997195,0.95056940223335
"chr01_2093431",1,2093431,0.127181311195443,0.391023657118062,0.745335362422111
"chr01_20966565",1,20966565,-0.263637178554518,0.366367334773674,0.472625393609673
"chr01_21155392",1,21155392,0.746480088384828,0.542442071711387,0.170338406053887
"chr01_21284235",1,21284235,0.217023881395107,0.465062949161614,0.641262484790684
"chr01_21304949",1,21304949,-0.122816096427869,0.520244436463173,0.813620639612715
"chr01_21543232",1,21543232,-0.482084366074105,0.37610604236687,0.201427110076921
"chr01_21691298",1,21691298,0.185028512067262,0.28296821632903,0.513948810632187
"chr01_2179364",1,2179364,-0.0943870634067707,0.693416263029443,0.891866277102812
"chr01_21804725",1,21804725,-0.477954918890191,0.459880598378195,0.299938104863069
"chr01_21907179",1,21907179,0.0460289806862306,0.34602679520417,0.894312206973354
"chr01_21925058",1,21925058,0.160937843734928,0.351612701709252,0.647662781070397
"chr01_21945573",1,21945573,-0.0615511438865894,0.346111448536293,0.859034347018325
"chr01_22070856",1,22070856,-0.628296053831832,0.603672138038646,0.299248561909703
"chr01_22158873",1,22158873,0.0218791649712671,0.454041212755207,0.961615534719341
"chr01_22282534",1,22282534,0.0915608197276327,0.269990849265299,0.73487630598023
"chr01_22338076",1,22338076,0.351486382252688,0.266325939813455,0.188446687339402
"chr01_22464053",1,22464053,0.42676065905755,0.309739705284175,0.169826850177414
"chr01_22541997",1,22541997,0.48260499274619,0.545590990641336,0.377475241873113
"chr01_22611029",1,22611029,0.0474041598135386,0.374557237901607,0.899417322666133
"chr01_22686521",1,22686521,0.241439737563837,0.48354522087058,0.618117040682323
"chr01_22923999",1,22923999,-0.421513139293722,0.405843118421156,0.300258756359302
"chr01_22998086",1,22998086,-0.675291231878532,0.606429620029232,0.266828034298414
"chr01_23068672",1,23068672,0.115319014510959,0.307470931937633,0.708021816047633
"chr01_23084855",1,23084855,-0.0815025140211958,0.378204377101543,0.829601549867745
"chr01_23144120",1,23144120,0.0883995108365525,0.22009269828784,0.688379414663761
"chr01_23269024",1,23269024,-0.120730636770475,0.382256507859186,0.752460812175655
"chr01_23333716",1,23333716,-1.22393426770304,1.03453477264868,0.238204415785279
"chr01_23489335",1,23489335,-0.204806439836943,0.547963552114774,0.708985377960052
"chr01_23657456",1,23657456,-0.278317606084954,0.429448366575806,0.517686771838465
"chr01_23693032",1,23693032,-0.870915555294118,0.547050956519809,0.11298373140939
"chr01_23746318",1,23746318,-0.202233820746642,0.508919665450851,0.691518458578545
"chr01_23873016",1,23873016,-0.18554060868982,0.318021826183201,0.560277260215554
"chr01_23889049",1,23889049,-0.16742653873041,0.247323894782249,0.499230191481218
"chr01_24034499",1,24034499,-0.0535286933101418,0.447231025791281,0.904851380391709
"chr01_2415250",1,2415250,0.652769863373692,0.465907168767392,0.16276561381594
"chr01_2415804",1,2415804,-0.252343756670257,0.514401509686084,0.624285079591629
"chr01_24201194",1,24201194,-0.188848476336148,0.445938577699863,0.672403133385244
"chr01_24280724",1,24280724,1.09195140261215,0.611084894248793,0.075490224248088
"chr01_24316666",1,24316666,-0.136858049683923,0.446934539079435,0.759764344290609
"chr01_2432095",1,2432095,-0.488833463585223,0.313767227648554,0.120850269845116
"chr01_2435851",1,2435851,0.0624139521109157,0.353944559426931,0.860209384252927
"chr01_24390059",1,24390059,-0.631646169584542,0.524139303011118,0.229605991085466
"chr01_24443464",1,24443464,0.467468675750894,0.353674035171678,0.187784215132875
"chr01_24450376",1,24450376,0.608928574255629,0.658875179234788,0.356515888985502
"chr01_24484663",1,24484663,-0.0645173612448389,0.621007066732415,0.917361135314303
"chr01_2449296",1,2449296,0.520117632600716,0.386553118758081,0.180001755558991
"chr01_24541544",1,24541544,0.241609983511083,0.48203577936064,0.616770061451529
"chr01_24567030",1,24567030,-0.266563782126241,0.615620920853969,0.66548855083967
"chr01_24619931",1,24619931,0.0447717563603192,0.574129605459495,0.937921545358818
"chr01_2472676",1,2472676,-0.10789951773711,0.473106628449602,0.819831506824473
"chr01_24826610",1,24826610,0.385665147959855,0.455388093396989,0.398082206348648
"chr01_2484534",1,2484534,0.362754133702538,0.406250723430938,0.37298323704222
"chr01_24941533",1,24941533,0.0311971941249567,0.404935665852987,0.938668046018394
"chr01_24982151",1,24982151,0.0415407882940997,0.328753908085362,0.899577170541188
"chr01_25014191",1,25014191,0.29534616497142,0.528675868036645,0.577033249166784
"chr01_25016954",1,25016954,0.583500096027421,0.391071420236121,0.137284357437346
"chr01_2504459",1,2504459,0.0443250807995952,0.278519973974078,0.873717617311363
"chr01_25099192",1,25099192,0.0917029398398199,0.376514741791384,0.807827086640583
"chr01_25113668",1,25113668,0.0365416046807354,0.474790316027756,0.938730555988589
"chr01_25229368",1,25229368,-0.260931801177207,0.459232898839003,0.570552637965548
"chr01_25289288",1,25289288,0.0125693210403313,0.29286238923086,0.965809680738344
"chr01_25294479",1,25294479,0.032244922138517,0.280746753780286,0.908677727969532
"chr01_25337854",1,25337854,0.0409517674710855,0.385688086385487,0.915548801604752
"chr01_25362716",1,25362716,-0.488905128531201,0.605519187917577,0.420401364230614
"chr01_25393424",1,25393424,0.156301689581937,0.448234715236858,0.727683175549545
"chr01_25443483",1,25443483,0.352413297976682,0.355864045738742,0.323240725841864
"chr01_25532677",1,25532677,-0.124192889539529,0.371712773785232,0.738652089456168
"chr01_2556323",1,2556323,-0.189179230825289,0.423782574614427,0.655794052043006
"chr01_2569979",1,2569979,0.154958249682011,0.485914320253639,0.750139943026133
"chr01_25845667",1,25845667,-0.140120969730262,0.362584416984315,0.699580049334044
"chr01_25880934",1,25880934,-0.327043757425372,0.595299796693559,0.583369262002707
"chr01_25881382",1,25881382,-0.0279972062994034,0.47819211760518,0.953371451707554
"chr01_25881530",1,25881530,-0.0370582588702746,0.442480639268072,0.933339337433382
"chr01_2592090",1,2592090,-0.219389910624415,0.420444427281614,0.602392442314487
"chr01_25944294",1,25944294,-0.245686864929667,0.68996809491633,0.722158411938347
"chr01_25993680",1,25993680,-1.3102532902858,2.0012135107064,0.513405704131124
"chr01_25998363",1,25998363,0.329030490145328,0.551947328135703,0.551774979248832
"chr01_26086515",1,26086515,-0.40013778456958,0.369048353890221,0.279582586626532
"chr01_26089345",1,26089345,-0.298775659215039,0.335384364716901,0.374098743783076
"chr01_26134955",1,26134955,-1.45528457701948,2.15470609589394,0.500214813083511
"chr01_2615400",1,2615400,0.556125013160795,0.615786760785834,0.367568896256206
"chr01_26158581",1,26158581,-0.824746697072499,0.433419716298535,0.0585142167101861
"chr01_26190062",1,26190062,0.0525603865089579,0.326902109304916,0.872428867774839
"chr01_26324075",1,26324075,0.0698714636571225,0.360513859579238,0.846523758455437
"chr01_26431578",1,26431578,0.132458857676909,0.305436100986882,0.66500170151099
"chr01_26434520",1,26434520,-0.576515363734586,0.428133508732647,0.179663237263241
"chr01_26521454",1,26521454,-0.666902056414642,0.494805313957437,0.17926834785134
"chr01_26521590",1,26521590,-0.0116629888797775,0.447444374036432,0.979231252197646
"chr01_26529842",1,26529842,0.348510006420355,0.370953859595437,0.34862617363058
"chr01_26662163",1,26662163,0.0191086084519441,0.427714022773817,0.964410710689595
"chr01_26679152",1,26679152,0.0487176963073921,0.504847206986515,0.923221666075066
"chr01_26679655",1,26679655,0.271689272534672,0.625376648999755,0.664443681699899
"chr01_26767744",1,26767744,-0.575103445992795,0.319036294776344,0.0729752331780365
"chr01_26771973",1,26771973,1.02121454427834,0.508904398814822,0.0461496530448703
"chr01_26834511",1,26834511,2.37024569780897,1.88000814802919,0.208885196259859
"chr01_26839647",1,26839647,0.563467024502302,0.539002778321827,0.297124701884852
"chr01_26886269",1,26886269,-0.0905830809364261,0.623315812978614,0.884603224391911
"chr01_26920613",1,26920613,-0.674858735561372,0.435681755168231,0.122993478700603
"chr01_26979040",1,26979040,0.390177579382282,0.394419269356192,0.323756394173254
"chr01_26990235",1,26990235,0.123268238068931,0.60938975831957,0.83990545322938
"chr01_27034376",1,27034376,-0.0659081547616722,0.343996877090635,0.848256625760944
"chr01_27137348",1,27137348,0.364198155757776,0.657581312679328,0.580312985985376
"chr01_27138077",1,27138077,0.59652340605777,0.382264858387073,0.120247332477877
"chr01_2721826",1,2721826,0.309892239228844,0.368637709616454,0.401567830484376
"chr01_27300138",1,27300138,0.141523837123032,0.568002670392691,0.803496206909399
"chr01_27305285",1,27305285,0.642303839729223,0.330529040229651,0.0534096399916142
"chr01_2743293",1,2743293,0.970779541226307,0.567598762688361,0.088779715595916
"chr01_2746081",1,2746081,0.542578830375533,1.02170391273763,0.595980328573104
"chr01_27478092",1,27478092,-0.233828836263967,0.346085032170772,0.500061662950127
"chr01_27527881",1,27527881,-0.384170893854389,1.92427508366081,0.841964562818424
"chr01_27716768",1,27716768,-0.414385044336427,0.418478196884545,0.323281779270329
"chr01_27719461",1,27719461,-0.165712460433227,0.471394548424601,0.725561487226791
"chr01_27737410",1,27737410,-0.280465216183188,0.541091962267114,0.604808406488353
"chr01_27873765",1,27873765,0.294962957557573,0.602741542144299,0.625124996873549
"chr01_27888440",1,27888440,0.218297271364065,0.465802325853343,0.639839508475524
"chr01_27896076",1,27896076,-0.587678861807262,0.577807868111455,0.310361172033836
"chr01_27959108",1,27959108,-0.299222035694697,0.567757351232917,0.598769535577494
"chr01_27966626",1,27966626,-0.434726417862066,0.415455663748992,0.296665661131186
"chr01_28039549",1,28039549,-0.13459635748643,0.486196997588865,0.782197034358524
"chr01_28126221",1,28126221,0.205164127999524,0.541603658524648,0.705237935707535
"chr01_28255228",1,28255228,-0.0101282712245165,0.301666903311939,0.973250566661054
"chr01_28316341",1,28316341,0.505743423294348,0.607061427088757,0.405796720490786
"chr01_28326510",1,28326510,0.0490736808267798,0.39093130895177,0.900231839055761
"chr01_28327033",1,28327033,0.074264302149686,0.374425696110577,0.842982105640121
"chr01_28328518",1,28328518,0.00140517094908432,0.398642508671234,0.997191117449934
"chr01_2838322",1,2838322,0.0894757830088651,0.567755418234669,0.874936845686243
"chr01_28424913",1,28424913,0.31455857364007,0.360063420476377,0.383388962452908
"chr01_2844907",1,2844907,-0.393203381350475,0.447151653613361,0.380282197401484
"chr01_28511520",1,28511520,0.327656253265559,1.03323510919947,0.751490770759232
"chr01_28535711",1,28535711,-0.151834451342836,0.470860374857458,0.747444884114159
"chr01_28649412",1,28649412,-0.219158704151823,0.561531842366479,0.696745848696646
"chr01_28674840",1,28674840,0.80566577177467,0.509647944438609,0.115521566523613
"chr01_28744793",1,28744793,-0.197044322445663,0.998402074836667,0.843749554198591
"chr01_28758380",1,28758380,0.24876478591267,0.353379071478592,0.482288844856046
"chr01_2880314",1,2880314,0.0788212407388187,0.530581473175767,0.882055681460836
"chr01_28817274",1,28817274,-0.0564783896779062,0.40370056556387,0.888880599402015
"chr01_28844397",1,28844397,-0.704772377022721,0.468937791900287,0.134462987668866
"chr01_29074093",1,29074093,-0.41983454934757,0.805010852397442,0.602585818644695
"chr01_29095637",1,29095637,-0.201388975145051,0.43146086640816,0.64118687918756
"chr01_29152234",1,29152234,0.3716112860523,0.324152382460007,0.25301641532163
"chr01_29201084",1,29201084,-1.00125403402643,0.424682918948096,0.0193713203884398
"chr01_29400170",1,29400170,-0.711239001932427,1.24272001637325,0.567754764834115
"chr01_29442159",1,29442159,-0.385085779705008,0.348644165555861,0.270713208204103
"chr01_29571299",1,29571299,-0.195698407845214,0.437675102149772,0.655271185054271
"chr01_29608354",1,29608354,-0.842834782770581,0.500744303313521,0.0939273957871838
"chr01_29914709",1,29914709,-1.27019499802077,0.684765527733068,0.0650998949044753
"chr01_29926464",1,29926464,-0.826427189905417,0.391924356250306,0.0362394730327915
"chr01_30028696",1,30028696,0.397271229657463,0.580784151984826,0.494762833308137
"chr01_3004429",1,3004429,-0.202739736475621,0.371303027576379,0.585668402166389
"chr01_30046325",1,30046325,0.498183431746895,0.367645524464443,0.176948746241607
"chr01_30136967",1,30136967,-0.576456450030207,0.417878513341916,0.16930965487918
"chr01_30266150",1,30266150,0.0680408495334177,0.493482550332117,0.89047692264721
"chr01_30285471",1,30285471,-0.338513274213938,0.419106335715237,0.420236001938457
"chr01_30291971",1,30291971,-0.211425169429958,0.537569996407362,0.694524743030851
"chr01_3039807",1,3039807,0.257859732506745,0.517642192431498,0.618939050801704
"chr01_30428165",1,30428165,-0.594030016477518,0.435139806916449,0.173763649123642
"chr01_30432434",1,30432434,-0.414865508002066,0.350617095862091,0.238138462356501
"chr01_30548050",1,30548050,-0.353199083121297,0.422469392910332,0.404148257172119
"chr01_30573400",1,30573400,-0.583182032423792,0.434874414186488,0.181453049319319
"chr01_30695647",1,30695647,-0.411303236493126,0.328632353185452,0.212214183873866
"chr01_31004147",1,31004147,0.517527253981598,0.53122019086824,0.3311402532535
"chr01_31078631",1,31078631,-0.434969381052184,0.457395058943731,0.342784405799333
"chr01_31140713",1,31140713,0.182851408541808,0.386047445128037,0.63627392196467
"chr01_31184982",1,31184982,-1.11258795329604,0.666597725887753,0.0966949694362555
"chr01_31194281",1,31194281,0.485794269212988,0.456436230949086,0.288486505817272
"chr01_31196354",1,31196354,-0.19927354272636,0.509299507340255,0.696020641235841
"chr01_31247440",1,31247440,-0.652394956340316,0.484098360178481,0.179318902921559
"chr01_31455121",1,31455121,0.0557805550437251,0.531063149667168,0.916454398846682
"chr01_31469641",1,31469641,0.0290224432212369,0.404119173647889,0.942820762512796
"chr01_31498756",1,31498756,-0.487485287771264,0.279758786298455,0.0829779912566167
"chr01_31507545",1,31507545,-0.403415243348626,0.35703186483888,0.259886402663069
"chr01_31529906",1,31529906,0.100501549243404,0.397999689783883,0.800905021136286
"chr01_31544211",1,31544211,0.496822232930271,0.346823553678595,0.153587718723455
"chr01_31570756",1,31570756,-0.0802332679884046,0.335979257409552,0.8115056285253
"chr01_31692036",1,31692036,-0.114016368483817,0.412845458206976,0.782705445794732
"chr01_31766350",1,31766350,0.5032027903178,0.514698804208485,0.32943929033496
"chr01_31830543",1,31830543,0.452785475514588,0.623723393471552,0.468737392806283
"chr01_31831705",1,31831705,1.38918373778426,0.572167178530326,0.0160837271962569
"chr01_32001190",1,32001190,1.14956337628485,0.485410488359514,0.0188414369294208
"chr01_32036233",1,32036233,0.835842531281855,0.607103823378019,0.170145873851688
"chr01_32104506",1,32104506,0.965689501839279,0.58030747685446,0.0976823119120421
"chr01_32409587",1,32409587,0.0129851000208419,0.909144045815015,0.988618835813645
"chr01_32410496",1,32410496,-0.345499014106849,0.56994779329697,0.545083702056819
"chr01_32540318",1,32540318,0.299049958021897,0.382194302450204,0.434886551389369
"chr01_32613009",1,32613009,0.32978743682736,0.422758590471627,0.436277363767574
"chr01_32687089",1,32687089,-0.561381060070005,0.446786395045625,0.21042753405704
"chr01_32694239",1,32694239,-0.348873869959561,0.619018674762264,0.573672913750159
"chr01_32694761",1,32694761,-0.585257457351815,0.359560762001035,0.105186555906165
"chr01_3272828",1,3272828,0.596793983226235,0.508418171103837,0.241882246825111
"chr01_33067627",1,33067627,-0.0923794092539652,0.428599724172582,0.829571092374921
"chr01_33081345",1,33081345,-0.0857455584740023,0.390135131668184,0.826266757541446
"chr01_33186603",1,33186603,-0.546375522556389,0.443268621003292,0.219191799893869
"chr01_33199949",1,33199949,-0.324426107854947,0.359527371168828,0.367963220543762
"chr01_33222617",1,33222617,-0.54637552259544,0.44326862100655,0.219191799864432
"chr01_33244439",1,33244439,-4.79497098951632,0.620342518867859,2.67037759658389e-14
"chr01_33250754",1,33250754,-0.262563699236807,0.359367194488549,0.46587449295124
"chr01_33359326",1,33359326,-0.907378499680476,0.57342983321849,0.115169101625161
"chr01_33422365",1,33422365,0.208503263145616,0.411104869383623,0.612597336866104
"chr01_33617647",1,33617647,0.131216580326054,0.307566735817765,0.670116145599658
"chr01_3368491",1,3368491,0.240711713031132,0.31592705641498,0.447017886229802
"chr01_33697094",1,33697094,0.38833479576607,0.410736190936137,0.345582067210538
"chr01_33701403",1,33701403,-0.131230380249121,0.450004531242771,0.770883924495671
"chr01_33787351",1,33787351,0.537414127106842,0.45869013364403,0.242761569648642
"chr01_33843130",1,33843130,0.103187758897377,0.387721368516877,0.790410532947759
"chr01_33932284",1,33932284,-0.808093558791541,0.45836279159532,0.0794509767631953
"chr01_34096636",1,34096636,-0.336453597187756,0.963463202157677,0.727302608470804
"chr01_34381013",1,34381013,0.250295366810178,0.500436493245302,0.617524807640949
"chr01_34384950",1,34384950,0.238135691952152,0.446217053488578,0.594166792323292
"chr01_34569381",1,34569381,-0.0537220448000539,0.410343226743023,0.895972364683735
"chr01_34582819",1,34582819,0.21488949175054,0.349883842077526,0.539809097071882
"chr01_34671057",1,34671057,-0.178407397139793,0.375582331132155,0.635302187258486
"chr01_3473612",1,3473612,-0.244211977270425,0.71404050119796,0.732704803155763
"chr01_34862876",1,34862876,-0.16472964908985,0.691689714371282,0.812008088244237
"chr01_3495915",1,3495915,0.92074002536549,0.576739037351745,0.111989295656786
"chr01_34963322",1,34963322,-0.887503930513674,0.611486483540184,0.148262524010832
"chr01_3516363",1,3516363,-0.309482163585358,0.447717674467942,0.490225962592645
"chr01_35253006",1,35253006,-0.128302139761786,0.329270851057653,0.697212357980626
"chr01_35262632",1,35262632,-0.202025707312231,0.363893501017059,0.57940268803734
"chr01_3528987",1,3528987,-0.369466298957434,0.399754269208102,0.356495432342335
"chr01_35739046",1,35739046,-0.225598900463481,0.376471512448206,0.54969763041245
"chr01_35803322",1,35803322,0.304849882749409,0.456974883953504,0.505486176800348
"chr01_3583698",1,3583698,0.0420588631690464,0.361586597597625,0.907519374744362
"chr01_35951952",1,35951952,-0.671250900364967,0.470476653374204,0.155235939671431
"chr01_36123634",1,36123634,-0.0906025875614205,0.619739192721622,0.883917174903717
"chr01_36210858",1,36210858,-0.558799369612586,0.469114860420575,0.235016848729114
"chr01_36212929",1,36212929,-0.31791793539827,0.430650833518551,0.461255227032542
"chr01_36306300",1,36306300,-0.388694155100922,0.386713932349747,0.316071740547026
"chr01_36342222",1,36342222,-0.624000555065706,0.400047997801179,0.120408801422256
"chr01_36365889",1,36365889,0.306687727000622,0.467149446559987,0.512262933251449
"chr01_36478419",1,36478419,-0.7783701556328,0.446999636564434,0.0831882672902391
"chr01_36511514",1,36511514,0.325624059992606,0.395242515239258,0.41101603572851
"chr01_36604810",1,36604810,-0.619330965888025,0.400296630587455,0.123424765727863
"chr01_36643619",1,36643619,-0.863325227684015,0.394696514181145,0.0298968858355227
"chr01_36665030",1,36665030,-0.886178228006543,0.550305189228764,0.108924881821212
"chr01_36671166",1,36671166,-0.418846113345239,0.357339607248322,0.242563048821673
"chr01_36754746",1,36754746,-0.883081546267448,0.444714890385985,0.0484507731014824
"chr01_3685775",1,3685775,-0.0758221224250235,0.329784560284003,0.818397067017849
"chr01_36905272",1,36905272,-0.119446509547174,0.433189058353302,0.783038639333061
"chr01_36946456",1,36946456,-0.620849065963739,0.465849562853125,0.184161639377246
"chr01_37025260",1,37025260,-0.169827686988299,0.398983795645863,0.670827114549727
"chr01_37058184",1,37058184,-1.53771297025651,0.799713353848055,0.0559435159443889
"chr01_371004",1,371004,0.315895953044674,0.745555195607111,0.672242744041625
"chr01_37155583",1,37155583,-0.25743485914029,0.403188684733077,0.523891634156953
"chr01_37213095",1,37213095,-0.157488567725068,0.623930985704282,0.80098467421181
"chr01_37225079",1,37225079,-0.17984555417172,0.645219008682191,0.780740057090401
"chr01_3726802",1,3726802,-0.414550046982356,0.325991195410196,0.20499308784844
"chr01_37312095",1,37312095,-0.0683581409209069,0.378237960417224,0.856766971363659
"chr01_37330141",1,37330141,-0.359065822598268,0.485738567893475,0.460655600488298
"chr01_37460442",1,37460442,-1.41167497180413,0.567437607476754,0.0136833801886951
"chr01_37531103",1,37531103,-0.479344984455167,0.438528933926914,0.275695745796675
"chr01_37601557",1,37601557,-0.540003326737406,0.440234173744594,0.221426677981261
"chr01_3762590",1,3762590,0.615874332521884,0.339480187035428,0.0711731240166009
"chr01_37733750",1,37733750,0.0620412598400435,0.701113173657068,0.929577400275251
"chr01_37812542",1,37812542,0.13073813123026,0.408350167046192,0.749184983340888
"chr01_37823545",1,37823545,0.0814303922197723,0.407894096028566,0.841971095468451
"chr01_37830831",1,37830831,0.157184648539271,0.398375121947737,0.693591201486864
"chr01_37905733",1,37905733,-0.509730939385406,0.446203197386983,0.254685105235243
"chr01_37921647",1,37921647,-0.407867431262957,0.545378237532831,0.455435464875607
"chr01_37977650",1,37977650,-0.0887027239210738,0.411063521081389,0.829375979712043
"chr01_38049236",1,38049236,0.291444087305649,0.398110570827437,0.464996960524568
"chr01_38110428",1,38110428,0.539383811481684,0.374617748257149,0.151504256363162
"chr01_38111908",1,38111908,0.284571328775257,0.384660986628791,0.460303413340671
"chr01_38243587",1,38243587,0.292611004438271,0.410594805078717,0.476904667411534
"chr01_38281751",1,38281751,0.114835182805962,0.402313362849349,0.775609127577131
"chr01_38307262",1,38307262,0.0610567960307549,0.396823830377541,0.877874683197736
"chr01_38709182",1,38709182,0.0161470013938754,0.370114714212998,0.965245902721491
"chr01_38912456",1,38912456,0.207463214740301,0.53239382877431,0.697194154845771
"chr01_3901738",1,3901738,0.596284052852752,0.478504305638552,0.214192315634781
"chr01_3912340",1,3912340,-0.203983889958778,0.4155620985503,0.624069978490263
"chr01_39275829",1,39275829,-0.163937302322637,0.526306468776668,0.755760270758439
"chr01_3934285",1,3934285,-0.595752667322643,0.307631443050599,0.0542273944925953
"chr01_39392062",1,39392062,0.1437416456032,0.272169553464269,0.598001629825998
"chr01_39413610",1,39413610,0.224636347258581,0.42305258481726,0.596024400481669
"chr01_39435399",1,39435399,0.1145337287345,0.403281315990817,0.776705169503673
"chr01_39492254",1,39492254,-0.274232926249056,0.530584510203996,0.605840206756715
"chr01_39492949",1,39492949,-0.274095178801133,0.41143573427029,0.506067786133579
"chr01_39667590",1,39667590,0.0575891894511642,0.602299157995658,0.923923074794592
"chr01_39691158",1,39691158,0.239149641467066,0.567569672759736,0.67395354806341
"chr01_39741448",1,39741448,-0.0692928386966969,0.434502417166029,0.873457012638021
"chr01_39773761",1,39773761,0.316505768270758,0.708563849666742,0.655592222000501
"chr01_39856300",1,39856300,0.197781649256285,0.775856857339763,0.799050595569589
"chr01_39870679",1,39870679,0.177394681423493,0.421862278801363,0.674575800525626
"chr01_39935541",1,39935541,0.358138569923995,0.525268158154637,0.496153299981409
"chr01_40259869",1,40259869,-0.314819063639149,0.307336435178116,0.306927730904576
"chr01_40280810",1,40280810,0.0921580146447241,0.386075630643793,0.811582808269614
"chr01_40375117",1,40375117,0.238987680737807,0.453822084336175,0.599056208071131
"chr01_40462213",1,40462213,-0.335354030254848,0.591491810640629,0.571384686582997
"chr01_40568279",1,40568279,-0.115831054251998,0.537288088757292,0.829534576611176
"chr01_40592211",1,40592211,0.462950244562137,0.384838938235455,0.230431128611888
"chr01_4061495",1,4061495,-0.662683304825549,0.354482009483147,0.0630452860444
"chr01_40740075",1,40740075,-0.479782995581672,0.498867265940035,0.337356793450328
"chr01_40741604",1,40741604,-0.773717379979303,0.608825421029771,0.205285557936501
"chr01_40775568",1,40775568,-0.198097448368571,0.265539182047405,0.456544813433726
"chr01_407922",1,407922,-0.125452688768007,0.345680752296038,0.717057556176929
"chr01_40810441",1,40810441,0.00527197612689179,0.350229871996103,0.988005208750193
"chr01_40875381",1,40875381,-0.247795449998677,0.263922773576185,0.348935003137695
"chr01_40896801",1,40896801,-0.0293501779909775,0.359343187314042,0.934986260463559
"chr01_4092932",1,4092932,-0.366051359992241,0.295658831855452,0.217157222979472
"chr01_40967765",1,40967765,3.25785644633743,1.86752761144044,0.0826357680270734
"chr01_41079401",1,41079401,0.0908445919025667,0.454797788039009,0.841884317781976
"chr01_41086598",1,41086598,0.0522154318743446,0.436539277125523,0.904912230495901
"chr01_4111198",1,4111198,-0.45898659330885,0.572852905377325,0.423964163658994
"chr01_41128450",1,41128450,-0.404141386560241,0.462624210383034,0.383408151171125
"chr01_41191690",1,41191690,0.140311776213693,0.320333832534391,0.661853598791986
"chr01_41246279",1,41246279,0.0377792626819655,0.570752842439247,0.947292104700155
"chr01_41253714",1,41253714,0.477328320938568,0.699670285689408,0.495901873077573
"chr01_41355934",1,41355934,-0.0179185595280842,0.532282737334318,0.973179479344072
"chr01_41429103",1,41429103,-0.0945993959594631,0.455499234448808,0.835691117468442
"chr01_41430806",1,41430806,-0.764924298205187,1.28092346229279,0.551082096226558
"chr01_41445901",1,41445901,-0.0609882221521048,0.340065916034061,0.857853213707317
"chr01_41557103",1,41557103,3.49536070417162,1.8740087516691,0.0636433456181761
"chr01_41640775",1,41640775,-0.0521784529777278,0.533109455703141,0.922130518809801
"chr01_41729716",1,41729716,0.248005345745071,0.397118440168738,0.533013800551497
"chr01_41808553",1,41808553,-0.156398198892788,0.347761659781806,0.653400929477355
"chr01_41908221",1,41908221,-0.159198783509112,0.375357368674477,0.671936764188371
"chr01_41925129",1,41925129,0.162485346790106,0.392856593426039,0.679617228251363
"chr01_41959255",1,41959255,0.18738143390857,0.406570453580374,0.645390900054247
"chr01_42005457",1,42005457,0.210700923389879,0.4328381180494,0.626948870510248
"chr01_42006955",1,42006955,-0.0784928883444422,0.310349516233307,0.800595523503879
"chr01_42038724",1,42038724,0.0418058485182087,0.412570866571886,0.919391477782977
"chr01_42055651",1,42055651,-0.0323007355629557,0.370061903523125,0.930533886931985
"chr01_42197194",1,42197194,0.331618984187401,0.489147163400662,0.498596735686208
"chr01_42345408",1,42345408,-0.070146122275446,0.463484064889575,0.879858226264126
"chr01_42354090",1,42354090,0.189170603669297,0.249295470933568,0.44886665910367
"chr01_42397090",1,42397090,0.0850174902294327,0.309377677906432,0.783756623003913
"chr01_42424924",1,42424924,0.0376084274672053,0.329818142975241,0.909331906036064
"chr01_42524854",1,42524854,0.0985368201612289,0.333665521478004,0.768063388448968
"chr01_42571553",1,42571553,-0.220184261181657,0.45418557863633,0.628364491047061
"chr01_4285205",1,4285205,-0.442436934963467,0.34068599082087,0.195577045514571
"chr01_42982896",1,42982896,-0.125603573113835,0.431364561279809,0.771222057394942
"chr01_42992528",1,42992528,0.228611840069448,0.724051321036818,0.752534239517381
"chr01_4333551",1,4333551,-0.0689897125702714,0.407897030128618,0.865863903204899
"chr01_4351910",1,4351910,-0.370355108009051,0.397730568271704,0.352904916781591
"chr01_4407035",1,4407035,0.331137494748191,0.443499695770148,0.456167108138402
"chr01_4481952",1,4481952,-0.115536206233799,0.422001921795657,0.784539586233155
"chr01_4524181",1,4524181,0.181459744620952,0.559922424738704,0.746221173775909
"chr01_4535419",1,4535419,0.00658243393013436,0.69156220301632,0.992415314150179
"chr01_456504",1,456504,0.0378458981414269,0.399596419388455,0.924641197470359
"chr01_4654718",1,4654718,-0.247723588729627,0.532627757994977,0.642375659800334
"chr01_4720163",1,4720163,0.893668476831863,0.476803497719411,0.0623706010178554
"chr01_4838942",1,4838942,-0.574585928102067,0.413305708003984,0.166030752284614
"chr01_4995141",1,4995141,0.64464394271252,0.322258745930146,0.0468311115708222
"chr01_5128216",1,5128216,-0.112392815334701,0.29575489652059,0.704339856074635
"chr01_516064",1,516064,0.205561118342814,0.496237289871092,0.679149343788039
"chr01_522058",1,522058,0.319754102879642,0.525870918563741,0.543856823446228
"chr01_5231305",1,5231305,0.432724001029385,0.418396675907925,0.302290327377932
"chr01_5234421",1,5234421,0.455687015085402,0.397072584745253,0.252518706105058
"chr01_5249098",1,5249098,0.105801272361461,0.245258084411299,0.666658337775138
"chr01_5345802",1,5345802,0.861833543817852,0.575542533889234,0.1358824286712
"chr01_5494271",1,5494271,0.368492848374444,0.403022776839139,0.36166505983136
"chr01_5501929",1,5501929,0.172102161548821,0.556900560971625,0.757620948454034
"chr01_553551",1,553551,0.361785961616079,0.58887828856515,0.539683312560987
"chr01_5546938",1,5546938,0.4756743186731,0.483101633529942,0.326015657748947
"chr01_5562524",1,5562524,0.436420030921454,0.505508455469577,0.389006539014705
"chr01_5770140",1,5770140,0.374898242800896,0.535088869781712,0.484361870299878
"chr01_5793001",1,5793001,-0.627240504765268,0.428095211520896,0.144463437686469
"chr01_5835307",1,5835307,-0.234752240858882,0.411727880561804,0.569216438086254
"chr01_5844439",1,5844439,0.0243826022585836,0.309261001105573,0.93723871795683
"chr01_5873105",1,5873105,0.51687854377542,0.532347941532253,0.332768168546745
"chr01_5883795",1,5883795,-0.00423890540248806,0.257863687752896,0.98690116095603
"chr01_5884298",1,5884298,-0.129680665226772,0.382263200517477,0.734786954883535
"chr01_5944498",1,5944498,-0.0190012118578125,0.525432535511758,0.971189012991599
"chr01_604888",1,604888,-0.154874566451952,0.331821127726801,0.641200859751259
"chr01_6095670",1,6095670,0.180286237384848,0.380461146206778,0.636122766262643
"chr01_6096837",1,6096837,-0.237885778135905,0.290395507060421,0.41367443626779
"chr01_6102028",1,6102028,-0.0853466645450283,0.303112287372231,0.778570465099569
"chr01_6117210",1,6117210,-0.0916668616326888,0.316481597624025,0.772393541722312
"chr01_6246086",1,6246086,0.413509540748692,0.530818512646798,0.43691233912021
"chr01_6262934",1,6262934,0.187510487521365,0.389149916813314,0.63044992497435
"chr01_6276937",1,6276937,0.965295083658134,0.553017185679168,0.0824558425387349
"chr01_6294048",1,6294048,0.0433079738644437,0.383938295773454,0.910304527346074
"chr01_6313064",1,6313064,0.106037389374592,0.528345911456993,0.841142628355697
"chr01_6404967",1,6404967,-0.32598353328558,0.504465030363691,0.518904171191458
"chr01_6453773",1,6453773,0.49695338276257,0.436155322466073,0.25592178071727
"chr01_6554090",1,6554090,-0.0812798008912807,0.357115714440974,0.820192684174469
"chr01_6660408",1,6660408,0.163825165384864,0.295408198114471,0.579816380348782
"chr01_6828184",1,6828184,-0.0821637393353143,0.334912984280943,0.806457374197925
"chr01_6874616",1,6874616,0.239988719968323,0.332852266894242,0.471760137009979
"chr01_7203260",1,7203260,0.474391430026799,0.616139126934233,0.442256531131665
"chr01_7255296",1,7255296,0.445434001886383,0.613589046542219,0.468731960182637
"chr01_7282970",1,7282970,0.11867490597146,0.304985132349748,0.6976098575174
"chr01_7303615",1,7303615,0.084593363647457,0.303077829329948,0.780449886570592
"chr01_7304750",1,7304750,-0.0549671805443523,0.386819544052778,0.887145985857379
"chr01_779593",1,779593,0.567321990490086,0.487745944186536,0.246175364019143
"chr01_8073213",1,8073213,-0.210262858647127,0.395578084687156,0.595648223840621
"chr01_8216215",1,8216215,0.236455894465522,0.329381387594473,0.473682500040389
"chr01_8248358",1,8248358,-0.350457179858893,0.385580026377101,0.364508733601289
"chr01_8267306",1,8267306,-0.0126189490290471,0.572584380126096,0.98243948351799
"chr01_8296625",1,8296625,-0.392726602558014,0.568440993380259,0.490451906221619
"chr01_8378991",1,8378991,0.591762454511013,0.539091659381949,0.273674137208412
"chr01_8389758",1,8389758,0.24106306133254,0.423497995239296,0.569856025022976
"chr01_8527939",1,8527939,-0.00745648011206868,0.411323042102773,0.985555056532957
"chr01_8538266",1,8538266,-0.212897346256682,0.414150374844584,0.607787529756649
"chr01_8546808",1,8546808,-0.342215397460336,0.57026395154562,0.549129257354098
"chr01_8613806",1,8613806,0.254376784406134,0.471564630877224,0.590198354449917
"chr01_8702552",1,8702552,0.139714271688959,0.294757648337612,0.636026885942399
"chr01_8743395",1,8743395,0.29749918443963,0.565192663795218,0.59922483431222
"chr01_8882297",1,8882297,-0.0144275797019304,0.260614685304457,0.955907916963223
"chr01_8980272",1,8980272,0.221633606733405,0.403192629593467,0.583150137480743
"chr01_9137148",1,9137148,-0.0541655642779801,0.336487718130368,0.872279325618518
"chr01_9195612",1,9195612,0.263264359591517,0.399538673285279,0.510716028733543
"chr01_9313131",1,9313131,-0.0219082839485765,0.286336794256548,0.939089184344361
"chr01_9477731",1,9477731,-0.223039886970469,0.572899627927128,0.697461760766476
"chr01_9571473",1,9571473,-0.132064802606266,0.320163639327052,0.680427700460892
"chr01_962893",1,962893,0.4891387365779,0.604020603652712,0.419029490793611
"chr01_9631156",1,9631156,-0.656150684749946,0.592147463462607,0.269175437801017
"chr01_9650703",1,9650703,-0.0321819456449361,0.409945397096476,0.937507620203737
"chr01_9665027",1,9665027,-0.00328890749085531,0.386255261160501,0.993214827328843
"chr01_9704967",1,9704967,0.0585333789649667,0.51917866942864,0.910349693597164
"chr01_9706671",1,9706671,-0.173349942272012,0.386620454809214,0.654377205631885
"chr01_9707169",1,9707169,0.070133041576014,0.287631919665511,0.807616891871135
"chr01_9897499",1,9897499,0.2717601650711,0.574424928955164,0.636665949437795
"chr02_10204193",2,10204193,-0.533903765763284,0.544597496083743,0.328108906033245
"chr02_1020554",2,1020554,0.0319570085336522,0.427602813209753,0.94050118516003
"chr02_1029286",2,1029286,-0.829368299515409,0.712158150528607,0.245595587057539
"chr02_1032529",2,1032529,-0.19922284370233,0.371962699990512,0.592839876328536
"chr02_10423338",2,10423338,1.53774677507874,0.55892407309924,0.00649029178435097
"chr02_10468303",2,10468303,1.41734976619489,0.588037602979218,0.0168582090888428
"chr02_10536514",2,10536514,1.44512061913838,0.548506950834108,0.00909225095270814
"chr02_10826668",2,10826668,-0.170037644652439,0.416791112807006,0.683739842090489
"chr02_10829778",2,10829778,-0.111147407022401,0.400415784845812,0.781625879595154
"chr02_10833700",2,10833700,0.169989596387722,0.407146462220607,0.676756712768768
"chr02_10948519",2,10948519,0.301444720417933,0.287234049113905,0.295245688866407
"chr02_11019461",2,11019461,0.120989796682636,0.455122728901103,0.790640490189785
"chr02_11433688",2,11433688,0.923730597700001,0.565289600910888,0.103838286622026
"chr02_11592692",2,11592692,-0.15519365456214,0.397660342670267,0.696760878768345
"chr02_11603656",2,11603656,0.969217065262001,0.569004857187013,0.0900787001323697
"chr02_11716701",2,11716701,-0.635963438174628,0.31494404744969,0.0448121563574591
"chr02_11800780",2,11800780,-0.270675117639314,0.361134218032588,0.454441613805157
"chr02_11864613",2,11864613,-0.556698605013565,0.336285637656144,0.0994286643025662
"chr02_11935491",2,11935491,0.419403927651956,0.580005593352449,0.470474101233556
"chr02_12021794",2,12021794,0.753387585253677,0.69648435907931,0.280707892395388
"chr02_12083669",2,12083669,0.0199717936694697,0.591545656042559,0.973101082026996
"chr02_12155439",2,12155439,0.658999064095894,0.415165075549431,0.114044332976128
"chr02_12180748",2,12180748,-0.443959266375941,0.300693357890256,0.141419317799977
"chr02_1219335",2,1219335,-0.651100701649625,0.549388387624637,0.237390815477868
"chr02_12215178",2,12215178,0.302041267255049,0.426915620261947,0.480094173676641
"chr02_12290376",2,12290376,-0.486482530727642,0.394569476830766,0.219065468498302
"chr02_12425081",2,12425081,0.845422129224175,0.5175219178792,0.103940684380499
"chr02_12569374",2,12569374,-0.295492888412355,0.478448340443812,0.537547898595738
"chr02_12622691",2,12622691,0.442215213140798,0.51673428885195,0.393154505646437
"chr02_12719891",2,12719891,-0.619604300073661,0.572314611760813,0.280296562337532
"chr02_12764932",2,12764932,-0.0213099210759538,1.21626533381664,0.986038884845589
"chr02_12788719",2,12788719,-0.18824837921008,0.404167224629295,0.641895716703825
"chr02_12790548",2,12790548,-0.370297736603561,0.616348441297088,0.548668562792131
"chr02_12824996",2,12824996,0.186955307800616,0.371991738867286,0.61582151191262
"chr02_12884895",2,12884895,-0.688791829040156,0.369268538743717,0.0636280463281158
"chr02_12935999",2,12935999,0.173820185710028,0.272808257449266,0.524765925881594
"chr02_12960918",2,12960918,0.536042605173634,0.601271195937854,0.373740251799389
"chr02_13029494",2,13029494,-0.216493465959502,0.386506278256877,0.576027678301835
"chr02_13166283",2,13166283,0.333820305531958,0.551571407166779,0.545731471188651
"chr02_13209740",2,13209740,0.372603960707011,0.350627929943492,0.289229745180021
"chr02_1322196",2,1322196,-0.285118914825148,0.496512312283241,0.566458210368796
"chr02_13428569",2,13428569,0.522114155213785,0.565297738923182,0.356819731788339
"chr02_13434664",2,13434664,-0.000583742091976092,0.558161388672235,0.99916660657681
"chr02_13505818",2,13505818,-0.45482668144615,0.431227079043483,0.2928421991392
"chr02_1356569",2,1356569,-0.469433020722448,0.301684609533038,0.121303848661378
"chr02_13575558",2,13575558,-0.494322988959482,0.464485412043118,0.288523643682584
"chr02_13651123",2,13651123,-0.196300435857495,0.388308411680078,0.613753791472229
"chr02_13719895",2,13719895,0.0635104496688541,0.330242074734592,0.847693699097185
"chr02_13912154",2,13912154,0.130803193444194,0.415463238200736,0.75321864156552
"chr02_13924381",2,13924381,-0.266161946151669,0.510023429954706,0.602352536254196
"chr02_13941423",2,13941423,0.32110472836024,0.368040388088228,0.384013383516323
"chr02_13960663",2,13960663,0.334302194144556,0.341910738104492,0.3293986242494
"chr02_14028135",2,14028135,-0.00314963159468107,0.346625430429327,0.992759271580373
"chr02_14056209",2,14056209,0.851419525647088,0.643924220714189,0.18762282803163
"chr02_14086732",2,14086732,-0.0627379116272664,0.47770782685591,0.89564738596961
"chr02_142151",2,142151,-0.141442132469507,0.313879672796486,0.652755162878798
"chr02_14377163",2,14377163,-0.0706630304177907,0.395337845854718,0.858324861819816
"chr02_14413082",2,14413082,-0.15804303293757,0.276547490821189,0.568321650845155
"chr02_14429118",2,14429118,-0.295093135867319,0.354998681028628,0.406838023902643
"chr02_14602714",2,14602714,-0.966685589978397,0.560431787715898,0.0861148875515552
"chr02_14713817",2,14713817,-0.695572125647686,0.57145328214272,0.224984762549582
"chr02_14743478",2,14743478,0.123803475207318,0.247202604067787,0.617058414709946
"chr02_14785055",2,14785055,0.137350064092438,0.531343839000923,0.796294287239576
"chr02_14805577",2,14805577,-0.272188357545986,0.327379276487415,0.406745283711871
"chr02_14809405",2,14809405,0.122500732237199,0.353739131710118,0.729485001759076
"chr02_14884319",2,14884319,0.0983287443852419,0.388907115266028,0.800660510287404
"chr02_14939638",2,14939638,0.188903915069602,0.336041288147919,0.574656314008454
"chr02_14956184",2,14956184,0.347738652499459,0.316880859777795,0.273814927941366
"chr02_15001953",2,15001953,0.120211595872917,0.335051884104536,0.720140139796074
"chr02_15060273",2,15060273,0.084990095985745,0.339922599207762,0.802826396605606
"chr02_15091010",2,15091010,-0.254762605350777,0.287114828265831,0.375988872767817
"chr02_15125442",2,15125442,-0.0344731671814031,0.297938705674288,0.908003750600426
"chr02_15224300",2,15224300,-0.110923183878455,0.293662882563694,0.706043130724211
"chr02_1535366",2,1535366,0.192163702587777,0.613403214941344,0.754403403174699
"chr02_15367854",2,15367854,0.0786384195686907,0.330638647530478,0.812253963398669
"chr02_15490919",2,15490919,-0.195612368510922,0.415834045095666,0.638582716791089
"chr02_15523158",2,15523158,-0.340522786898418,0.603802627635164,0.573420271188556
"chr02_1552778",2,1552778,0.130527529069013,0.534452268878478,0.807309398651539
"chr02_1568988",2,1568988,0.0404989354388476,0.451812652241929,0.928667089334332
"chr02_15817322",2,15817322,-1.04365060036912,0.692052114370273,0.13314322284166
"chr02_15848014",2,15848014,-0.384771923338832,0.531214030175942,0.469725194203382
"chr02_15908191",2,15908191,-0.317037292127964,0.456848735231544,0.488521301283456
"chr02_16034135",2,16034135,-0.263214107665078,0.457667496180136,0.565865853448689
"chr02_16185840",2,16185840,0.0149620106410566,0.358250260508568,0.966729027531855
"chr02_16236506",2,16236506,0.522434960508804,0.500786092001987,0.298120381164803
"chr02_16240125",2,16240125,-0.0121300524361629,0.661249161454462,0.985382873941393
"chr02_16321305",2,16321305,-0.203924049340117,0.453035197416451,0.653112733937739
"chr02_16340131",2,16340131,0.00098835793608032,0.534091887643728,0.998525356802026
"chr02_16427765",2,16427765,0.451367220741304,0.51295128537877,0.379963049097225
"chr02_16523891",2,16523891,-0.238833216820836,0.471053064582985,0.612708009379925
"chr02_16547978",2,16547978,-0.258595951212897,0.434299357720491,0.552237808433965
"chr02_16565549",2,16565549,-0.394883132219888,0.566715352402662,0.486753911390478
"chr02_16590252",2,16590252,0.112840772534582,0.691104204696132,0.870468456416682
"chr02_166287",2,166287,-0.235639632408947,0.473429826227996,0.619230372506303
"chr02_16648949",2,16648949,0.445749410786831,0.623819156067385,0.475733561238578
"chr02_16741915",2,16741915,0.257148786058906,0.533836624864522,0.630554172111556
"chr02_16891410",2,16891410,-0.088133836698546,0.434337332845519,0.839410395694154
"chr02_16944434",2,16944434,-0.0299279817380693,0.593782988989145,0.959852932608218
"chr02_16970367",2,16970367,0.138074889852561,0.35014488566171,0.693759208638921
"chr02_17026592",2,17026592,-0.770229397495996,0.409820225003068,0.0616619066676786
"chr02_17161440",2,17161440,-0.101984071987971,0.320337881807416,0.750546042592093
"chr02_17222131",2,17222131,0.409457654231176,0.443341260587445,0.356838931350402
"chr02_17275936",2,17275936,-0.262903444158042,0.601309531543798,0.662432047171017
"chr02_17311395",2,17311395,0.929382775028216,0.53989714846443,0.0867468121416996
"chr02_1734469",2,1734469,0.0204675474367377,0.560783620016476,0.970922135235398
"chr02_17354391",2,17354391,0.0818938604157893,0.538017494204279,0.879173833095511
"chr02_17365858",2,17365858,0.12115124186073,0.64716920787034,0.851695070840587
"chr02_17505735",2,17505735,0.0907833876967175,0.350744768143624,0.796036388531141
"chr02_1760077",2,1760077,-0.259897163818437,0.395922348982753,0.51231050805761
"chr02_17699410",2,17699410,0.181323433057628,0.522743023789223,0.729059862404719
"chr02_177081",2,177081,0.1133989077357,0.520442818195258,0.827740911020811
"chr02_17741343",2,17741343,0.0406409328593469,0.361607312852397,0.910628869452804
"chr02_17781109",2,17781109,0.155484707441815,0.514874186874444,0.762981435261157
"chr02_17793194",2,17793194,-0.162079470059041,0.304681866527442,0.595351040899933
"chr02_18019350",2,18019350,-0.0703792345468344,0.317290275480633,0.824688915958535
"chr02_18068311",2,18068311,-0.13611572550721,0.312542743673248,0.663668527425517
"chr02_18175476",2,18175476,-0.665884445550716,0.513589781938336,0.196309687661444
"chr02_18235382",2,18235382,-0.0563119830209757,0.401758354416445,0.88867376526707
"chr02_18252614",2,18252614,-0.46277264288608,0.508981467675827,0.364348628598232
"chr02_18322358",2,18322358,-0.85087295196854,0.742000594122593,0.252884872831606
"chr02_18352851",2,18352851,0.228797100952733,0.302931626564854,0.450985214316624
"chr02_18456387",2,18456387,-0.242531408711187,0.316214584696371,0.444009442218904
"chr02_18502876",2,18502876,0.0788831536724359,0.405876474457856,0.846100062730706
"chr02_1853394",2,1853394,0.0305332219916892,0.452348265682674,0.946252622608201
"chr02_18584457",2,18584457,0.411425936038313,0.647398652600833,0.525835758272213
"chr02_18680597",2,18680597,0.749278979286942,0.449640273398704,0.0972236267635431
"chr02_18750492",2,18750492,0.0918159931094351,0.379213626238472,0.808937433786564
"chr02_18903337",2,18903337,-0.307956834805452,0.503055481075093,0.541129415693468
"chr02_18909029",2,18909029,0.363312115207009,0.350709510614124,0.301502589589723
"chr02_18923219",2,18923219,-0.705548091407309,0.579413486867947,0.224796947523033
"chr02_18987156",2,18987156,-0.504015281915144,0.373963768483568,0.179281828363727
"chr02_18999400",2,18999400,-0.2175529466451,0.267311008414563,0.416709473797746
"chr02_19000375",2,19000375,-0.00300825244590897,0.392820100452606,0.993897535827689
"chr02_19200792",2,19200792,0.27578778135387,0.536299461412387,0.607659093330571
"chr02_19428471",2,19428471,0.34347376191991,0.343288906709548,0.318277361400814
"chr02_19584506",2,19584506,0.090318316279749,0.25758115178166,0.726232920862737
"chr02_19594448",2,19594448,-0.585174116914601,0.332301921221416,0.0797947828092772
"chr02_19959035",2,19959035,-0.00165484449985343,0.916517804022017,0.998561184934628
"chr02_2002257",2,2002257,-0.207176308225655,0.340434877575307,0.543514724184716
"chr02_20093736",2,20093736,0.612377261302811,0.378589484222946,0.107365449778204
"chr02_20127151",2,20127151,-0.507946177382507,0.418914274956759,0.226761609353398
"chr02_20175995",2,20175995,0.474765742460022,0.397020708121465,0.23320376013261
"chr02_20199528",2,20199528,0.413398487619986,0.437600063744438,0.345971927305135
"chr02_20224634",2,20224634,-0.0378252632289104,0.487393110101869,0.938219201316015
"chr02_20332317",2,20332317,-0.0429076341157497,0.430774730344874,0.920758626337076
"chr02_2049709",2,2049709,0.249157542218967,0.295436700000776,0.40005366697179
"chr02_2083282",2,2083282,-0.412124602778761,0.318389535306548,0.197041229221462
"chr02_20920942",2,20920942,-0.0139972065389031,0.268558656687807,0.958486097784629
"chr02_2100813",2,2100813,1.08975872803114,0.579727092310767,0.0616143904171699
"chr02_210544",2,210544,0.256483796924329,0.386170809498475,0.507356912225411
"chr02_2115821",2,2115821,0.958914643452772,1.05909618901507,0.366355027151435
"chr02_21196336",2,21196336,-0.0950012536026748,0.434666415953034,0.827218060125753
"chr02_2129727",2,2129727,-0.629573646832569,0.554137636216672,0.257281431890331
"chr02_2160557",2,2160557,-0.453406717648136,0.544167634175321,0.405734518382023
"chr02_21742152",2,21742152,-0.487893380429398,0.448014157005846,0.277478415456053
"chr02_22050806",2,22050806,0.477994380337151,0.37592947931795,0.205049895973448
"chr02_22104241",2,22104241,0.0865467712089867,0.367459529850836,0.814044112237728
"chr02_22161493",2,22161493,0.450098553070234,0.573315397927285,0.433349681675487
"chr02_22380151",2,22380151,0.235253879509727,0.297368214453765,0.429825517933
"chr02_22427703",2,22427703,-0.250340237794148,0.447052045490519,0.576129219061772
"chr02_22662673",2,22662673,0.736711199730394,0.411814470830608,0.0751609732516056
"chr02_2274960",2,2274960,0.203556528311424,0.436886746482342,0.641783799083855
"chr02_22781213",2,22781213,-0.487777246886196,0.368875256432441,0.187589273519495
"chr02_22891824",2,22891824,-0.143461739856264,0.367200408086069,0.696448127836529
"chr02_22896187",2,22896187,-0.115088527348377,0.389154519714435,0.767740200487172
"chr02_23064125",2,23064125,0.487060768949249,0.393081219092594,0.216788506453545
"chr02_23170351",2,23170351,0.524376492033525,0.433137549691256,0.227481347183593
"chr02_23200488",2,23200488,-0.102928202917667,0.388946109884266,0.791568412227393
"chr02_23247697",2,23247697,0.265307784894958,0.48969313145824,0.588579720611585
"chr02_23322302",2,23322302,0.305898132156472,0.568396882018731,0.591062368517226
"chr02_23459514",2,23459514,-0.884345859694463,0.48744900826169,0.0711632582702842
"chr02_23576588",2,23576588,0.0979989590972252,0.299629377389448,0.743964277212831
"chr02_23618262",2,23618262,0.140973052280913,0.442573882604902,0.750420397029102
"chr02_23646686",2,23646686,0.312656162868336,0.438118180503866,0.476297927740517
"chr02_23651050",2,23651050,0.522422283245533,0.495634152428003,0.293151899127188
"chr02_2375777",2,2375777,0.636967646760922,0.742871411618079,0.392243680100074
"chr02_23857770",2,23857770,0.378330273253027,0.530793352535946,0.476835333699529
"chr02_23902816",2,23902816,-0.085759652454243,0.398650709804116,0.829892566248875
"chr02_23910829",2,23910829,-0.663478245013891,0.400242963392875,0.0989718526114679
"chr02_24011449",2,24011449,-0.0258445958515949,0.513527567145913,0.9599123426033
"chr02_24011462",2,24011462,0.116138389006437,0.518931352524714,0.823142523894284
"chr02_24172657",2,24172657,0.218089997323204,0.483550135871799,0.652472353300046
"chr02_24186238",2,24186238,0.123035413697778,0.253110870861951,0.62744151724326
"chr02_24201150",2,24201150,-0.136095016587547,0.625773881977955,0.828057246472457
"chr02_24204236",2,24204236,-0.0761804366310344,0.512864962302001,0.882069363838396
"chr02_24233440",2,24233440,0.0486231541412394,0.35076978329372,0.88989327925815
"chr02_24321935",2,24321935,0.425115378346959,0.399420936417083,0.28848239500721
"chr02_24355987",2,24355987,-0.687206591600386,0.402056319000894,0.0889831526639928
"chr02_24398258",2,24398258,0.204946635884312,0.500924280395963,0.682883616177769
"chr02_24443818",2,24443818,0.000745275744122864,0.430064366291343,0.998619068178984
"chr02_24546131",2,24546131,-0.0688466817625653,0.327537430413266,0.833732833202236
"chr02_24603906",2,24603906,-1.1432293725029,2.23587875621905,0.609705909231374
"chr02_24624871",2,24624871,-0.148425377286912,0.467398049259661,0.751157559178464
"chr02_24753370",2,24753370,0.179118049012402,0.465426637848254,0.700765924637991
"chr02_248069",2,248069,0.285053840799264,0.757189955688509,0.706978021853413
"chr02_24877438",2,24877438,-0.105792860161841,0.527530885101891,0.841262469646555
"chr02_24889710",2,24889710,0.143941720823079,0.466868506530339,0.758169790660624
"chr02_24980369",2,24980369,-0.7327123007301,0.510485693262407,0.152780616344802
"chr02_25108462",2,25108462,-0.101159718609921,0.356253872355608,0.776743837952139
"chr02_25115531",2,25115531,-0.792638058983869,0.457465879592322,0.084719068279367
"chr02_2517794",2,2517794,-0.282648340107585,0.475679483411882,0.55306067433917
"chr02_2528212",2,2528212,0.0883384112339627,0.346858437525133,0.799234803248763
"chr02_2529714",2,2529714,0.289508759252385,0.433339048397698,0.504859186134702
"chr02_25505386",2,25505386,-0.169398796018186,0.509642397095838,0.739950034505065
"chr02_25537867",2,25537867,-0.11588650208364,0.418436617397582,0.782107994216845
"chr02_25647786",2,25647786,0.0351309422219401,0.497474905565846,0.943773005392463
"chr02_25723636",2,25723636,0.417384502741015,0.490560075330335,0.395895324803431
"chr02_25728445",2,25728445,0.192790664911513,0.624477422334063,0.757858329416927
"chr02_25868843",2,25868843,0.331893198246121,0.461056076564615,0.472467874511852
"chr02_25893021",2,25893021,-0.291409485691588,0.327522212384734,0.374690941816529
"chr02_25909477",2,25909477,0.149613838919691,0.362112146401673,0.679931509893841
"chr02_25998276",2,25998276,-0.33342666102223,0.348416859428818,0.339752155438496
"chr02_26027428",2,26027428,-0.0955822939986319,0.510477373694725,0.851664380204939
"chr02_26037143",2,26037143,-0.0443025811312907,0.344239320873826,0.89772867123914
"chr02_26097950",2,26097950,0.155067223844412,0.404711107979216,0.702017717872763
"chr02_2610832",2,2610832,-0.662231022937135,0.536675450675529,0.218691361460719
"chr02_2622496",2,2622496,0.0103264655807891,0.37022056076526,0.977775934951846
"chr02_26279470",2,26279470,0.197204548919032,0.327223596308876,0.547428050053082
"chr02_26283613",2,26283613,-0.132406680701195,0.386093688556109,0.732009822129999
"chr02_26291833",2,26291833,-0.133140939287856,0.335740999061421,0.692122305730126
"chr02_26453127",2,26453127,0.275689398762893,0.472488232728387,0.560234831898441
"chr02_26497434",2,26497434,0.0909847958345154,0.52732033805346,0.863188742652021
"chr02_26517451",2,26517451,-0.398224336772387,0.491410043647079,0.418704958213465
"chr02_26599767",2,26599767,-0.705343864768622,0.385323146350344,0.0686822869137764
"chr02_26770485",2,26770485,0.303978861612848,0.421603585372301,0.471760362784196
"chr02_26789667",2,26789667,0.0860933692859476,0.445031790452844,0.846802408983422
"chr02_26814621",2,26814621,-0.462810846596426,0.325979089960165,0.157259156439482
"chr02_26821182",2,26821182,-0.121753402156571,0.422527200924126,0.773530894311174
"chr02_26873332",2,26873332,-0.0227043667266855,0.340406365469879,0.94688990078142
"chr02_26943646",2,26943646,0.112069191206388,0.520236316363014,0.829662914118022
"chr02_27034226",2,27034226,0.117840163235428,0.295908408277953,0.690890512186955
"chr02_27180476",2,27180476,-0.120900691736551,0.358566401047422,0.736341702666141
"chr02_272963",2,272963,0.138682628699826,0.355232098110295,0.69666256624494
"chr02_273607",2,273607,0.241860392922661,0.416601525785048,0.562203439035288
"chr02_27373560",2,27373560,-0.29085115963926,0.286124510791312,0.310628836089876
"chr02_27426218",2,27426218,0.171725042765388,0.437999952287333,0.695433007570043
"chr02_27597589",2,27597589,0.277375703234782,0.253175726523152,0.274597704683346
"chr02_27616801",2,27616801,0.657068672114519,0.373811820085708,0.0803427573376162
"chr02_2766556",2,2766556,0.11883680912166,0.364520981388952,0.744764233682117
"chr02_27818004",2,27818004,0.119234106967667,0.380596300151403,0.754397586246975
"chr02_27834279",2,27834279,0.28240806754755,0.320080173470744,0.378687657159987
"chr02_27837971",2,27837971,-0.261131774313071,0.296233232919468,0.37911751699495
"chr02_27846806",2,27846806,-0.240093884205294,0.381788671727469,0.530165337566201
"chr02_27885960",2,27885960,-0.0330753994619783,0.399110522882977,0.934036841168751
"chr02_27977720",2,27977720,0.0948201960121935,0.337456798028638,0.779017027598766
"chr02_28010163",2,28010163,0.39285640628664,0.303817308462264,0.197501900602531
"chr02_28038349",2,28038349,0.671579439096604,0.430141086043852,0.12005788754547
"chr02_28040606",2,28040606,0.808444773141446,0.654520508559384,0.21823791974846
"chr02_28069534",2,28069534,0.396817494540983,0.397407010152868,0.319253819775187
"chr02_28214696",2,28214696,-0.572746708670081,0.408834462469876,0.162809540752431
"chr02_2825165",2,2825165,0.561876074891018,0.373917283438915,0.134524221469646
"chr02_2830553",2,2830553,-0.635474254562951,0.447028358813845,0.156737359753022
"chr02_28343019",2,28343019,0.436217200549606,0.393031571667866,0.268404423418413
"chr02_28355115",2,28355115,0.635566112461106,0.480068591273047,0.187068102726746
"chr02_28355723",2,28355723,-0.254320127522703,0.464119598438824,0.584338013112113
"chr02_2839068",2,2839068,0.600177311237587,0.395895391553754,0.131122353018093
"chr02_2860299",2,2860299,-0.649415495363996,0.514326041793151,0.20820634920721
"chr02_28614520",2,28614520,-0.55571289552006,0.382837541320424,0.14821371675893
"chr02_28687000",2,28687000,0.326051732920178,0.528965429421719,0.538345361689593
"chr02_28689273",2,28689273,0.333462904259648,0.316259860938604,0.292993429028668
"chr02_28694566",2,28694566,0.645537448049083,0.392566344347474,0.101687701681326
"chr02_2877410",2,2877410,0.0310565522864863,0.393027599869945,0.937097911147118
"chr02_28805611",2,28805611,0.217628945812066,1.75451275586994,0.901410441523426
"chr02_28908316",2,28908316,-1.17516501579348,0.537394425789831,0.0299362435815155
"chr02_28950389",2,28950389,0.315097634321546,0.669018115626387,0.638172408328685
"chr02_2898187",2,2898187,0.110934427378822,0.932404994852665,0.905415085517144
"chr02_29100617",2,29100617,-0.178373123747292,0.287636900693252,0.535886921700612
"chr02_29108036",2,29108036,-0.00143853474003208,0.392428754128928,0.99707889287565
"chr02_2928214",2,2928214,-0.387345281866516,0.347325883810273,0.266114118102816
"chr02_29300692",2,29300692,-0.206068669161141,0.481831950295632,0.669353088877493
"chr02_29327270",2,29327270,-0.227466385230656,0.378331920714258,0.548374678263163
"chr02_2948360",2,2948360,0.746839966767681,0.676504980241734,0.270953572962418
"chr02_29579374",2,29579374,-0.16296781347279,0.46400590221555,0.725799189247945
"chr02_29721290",2,29721290,-0.497436331319363,0.527254025786248,0.346607802876757
"chr02_29767497",2,29767497,0.807469139113721,0.517419465955548,0.120230315634091
"chr02_29912721",2,29912721,-0.554458028923875,0.446263662407035,0.215549361892057
"chr02_30041740",2,30041740,-1.1883927268409,2.35141356913633,0.613846381548566
"chr02_3009020",2,3009020,-0.498463704057684,0.387852681677556,0.200235405865134
"chr02_30166081",2,30166081,-0.57319562273932,0.425623908046263,0.179618168595072
"chr02_30223258",2,30223258,0.349282872450772,0.492027966843612,0.478615377191637
"chr02_30271120",2,30271120,-0.147145863034439,1.14689106184463,0.898042625287942
"chr02_30331621",2,30331621,0.080823462857893,0.539653976826155,0.881100049925162
"chr02_3034700",2,3034700,-0.423467863893791,0.75143662671293,0.573705175548388
"chr02_30404145",2,30404145,-1.66421594557232,1.53341245900162,0.279114137811466
"chr02_30636799",2,30636799,-0.137791627879011,0.240967546436806,0.568091413295813
"chr02_30649960",2,30649960,-0.0977985669983354,0.382622434147615,0.798525843221004
"chr02_30666300",2,30666300,0.405134027078816,0.412185334829316,0.326865741466807
"chr02_30667031",2,30667031,-0.205015413921245,0.34505601361969,0.553092730438586
"chr02_30692422",2,30692422,-0.368799241853594,0.367048748643704,0.316240593923467
"chr02_30701370",2,30701370,0.132774330086704,0.446059858292799,0.766276080406139
"chr02_30756490",2,30756490,-0.374766813553151,0.421402894857409,0.37490969610092
"chr02_30789963",2,30789963,0.00529992197482443,0.58797918269338,0.992817253425265
"chr02_30870611",2,30870611,-0.396878894120846,0.280432702534139,0.158577697612229
"chr02_3105367",2,3105367,0.134851540106638,0.502285069271573,0.788613796137143
"chr02_31056061",2,31056061,0.394260342314539,0.329433495723021,0.232829468001769
"chr02_31097812",2,31097812,0.384989868774369,0.524543155262153,0.463850178535368
"chr02_31098785",2,31098785,0.264212256716633,0.439404493493094,0.548333985473428
"chr02_3115657",2,3115657,-0.320935692125943,0.309616579238227,0.301212338138806
"chr02_31287673",2,31287673,0.149054175960032,0.357295094502731,0.677005495236025
"chr02_31290996",2,31290996,0.0755026657443523,0.324209644667676,0.816094636692053
"chr02_31311006",2,31311006,-0.0170553233406849,0.498553835636408,0.97274465447089
"chr02_31313265",2,31313265,0.590667097974574,0.443697890580817,0.184649501359576
"chr02_31383462",2,31383462,-0.275746292737551,0.466078998592705,0.554776720981512
"chr02_31449850",2,31449850,0.0814626582241544,1.04690723010497,0.938056034670192
"chr02_3151030",2,3151030,-0.152541429927851,0.50195764077076,0.761530120027714
"chr02_31511825",2,31511825,0.18972360712803,0.529893363787117,0.720695892274244
"chr02_31765419",2,31765419,0.0781274392631985,0.368364435936228,0.832253925863355
"chr02_31798840",2,31798840,-0.0316564192664543,0.445552866512815,0.943430237317306
"chr02_31808231",2,31808231,0.588717756891072,0.461978621583355,0.204044185689851
"chr02_31832663",2,31832663,-0.0270168321306983,0.452689792544787,0.952470461743463
"chr02_31868120",2,31868120,-0.517983352218039,0.559679852677893,0.355838550725229
"chr02_3193505",2,3193505,0.167197175021357,0.49399240358914,0.735376244061711
"chr02_32014643",2,32014643,-0.814847774837858,0.488428286082036,0.0968436367895145
"chr02_32402030",2,32402030,-0.398067833095638,0.882053656426013,0.652272177220689
"chr02_32405101",2,32405101,-0.159260256968196,0.867387173502556,0.854508896631549
"chr02_32424504",2,32424504,-0.273454054656781,0.602828207475951,0.650602698430101
"chr02_32487257",2,32487257,0.0132704880220444,0.626737768757623,0.983128358421744
"chr02_32605634",2,32605634,0.962576618278831,0.531891856023635,0.0718629623217835
"chr02_3264965",2,3264965,-0.466931774122941,0.377624116311585,0.21774534441946
"chr02_32833978",2,32833978,0.539759300555914,0.38507063245132,0.162573927578336
"chr02_33091358",2,33091358,-0.180716892091482,0.420221335882707,0.667628102828765
"chr02_33098081",2,33098081,-0.586239781446238,0.557440905776511,0.294242644814821
"chr02_33116482",2,33116482,0.945681500939145,0.585473977797595,0.107858952516024
"chr02_33116794",2,33116794,0.552300705365724,0.368153557432799,0.135165833825639
"chr02_33150970",2,33150970,0.388931309786457,0.271741358225394,0.153941472889728
"chr02_3315577",2,3315577,-0.470087299136537,0.498628392994361,0.346957976190289
"chr02_33277731",2,33277731,-0.476426040209901,0.379213726040779,0.210476047340514
"chr02_33282003",2,33282003,1.00257621418848,0.607798894590582,0.100634824493517
"chr02_3343107",2,3343107,-0.818822281630446,0.589418638945971,0.166339230880255
"chr02_33457715",2,33457715,-0.16515819998142,0.326194726465257,0.613199720290341
"chr02_33465368",2,33465368,-0.547671403556649,0.442206711742314,0.217005824509864
"chr02_33491633",2,33491633,-0.743875836488087,0.752299554989208,0.323972597246259
"chr02_33512686",2,33512686,-0.436488584111487,0.474612830048067,0.35886842177271
"chr02_33631144",2,33631144,-0.0803046586162139,0.319603508973426,0.801872381231627
"chr02_33728376",2,33728376,-0.336193949569591,0.384418876814128,0.382883139791963
"chr02_33831248",2,33831248,0.133945384446747,0.642015883458806,0.834950687428563
"chr02_33879474",2,33879474,-0.296292975785093,0.378674807464232,0.434891403276289
"chr02_33956674",2,33956674,0.347775861201384,0.291748546948528,0.234679637293912
"chr02_33961766",2,33961766,0.0209419912522151,0.403701483694479,0.958680902918383
"chr02_34112789",2,34112789,0.919511213704368,0.557437529352491,0.100632228788067
"chr02_34228354",2,34228354,-0.350582532727771,0.304921376825769,0.251641830519084
"chr02_34247407",2,34247407,-0.4635027820608,0.334275238894197,0.167133863218482
"chr02_34325507",2,34325507,-0.00274618308350227,0.566733396837497,0.996138661259212
"chr02_34326757",2,34326757,-0.2463382910436,0.361953894682686,0.496936895402978
"chr02_34349765",2,34349765,-0.206717648988189,0.37817279154274,0.585256891655703
"chr02_34416047",2,34416047,-0.462767686726522,0.354519885350788,0.193300825936515
"chr02_34440763",2,34440763,0.122346726777835,0.438129476687949,0.780347548506301
"chr02_34441906",2,34441906,-0.453832777255002,0.546843766659843,0.407592500321316
"chr02_34445901",2,34445901,-0.309836306940156,0.550200826607485,0.573984602330101
"chr02_34447075",2,34447075,-0.110377672620245,0.500065220135392,0.825533946706291
"chr02_34482887",2,34482887,0.360169422242052,0.521818882982023,0.490868685133686
"chr02_34544695",2,34544695,-0.00583583616277394,0.292622605659539,0.984108854200664
"chr02_3463205",2,3463205,0.333901077251255,0.404546123842435,0.41015873871151
"chr02_34677233",2,34677233,0.429114653830425,0.546077483676517,0.432921318130944
"chr02_34900196",2,34900196,-0.271467415402867,0.535632129132897,0.612850098715152
"chr02_34904613",2,34904613,-0.46131674658568,0.545021122332514,0.398345512792114
"chr02_35131427",2,35131427,0.367214315344995,0.401761369690562,0.361828372261187
"chr02_35134360",2,35134360,0.185960943078442,0.327654399585816,0.570985354220924
"chr02_35200518",2,35200518,0.260932361536248,0.527615539602109,0.62146873145832
"chr02_35316566",2,35316566,-0.159081422700382,0.430954433736104,0.712421717124317
"chr02_35342322",2,35342322,0.0123045363275054,0.263222351442689,0.962763189881934
"chr02_35385043",2,35385043,-0.0215769971210591,0.431055181144506,0.960128294744558
"chr02_354089",2,354089,-0.77657507787967,0.709909422445121,0.275331401922266
"chr02_35443672",2,35443672,0.254343663027214,0.427942263226967,0.552965950841723
"chr02_35460118",2,35460118,0.116039066692224,0.501761856606628,0.817350331236352
"chr02_35528220",2,35528220,-0.462771845364273,0.336451646084995,0.170554484140649
"chr02_35682061",2,35682061,1.10651474970439,0.589549148482304,0.0620124736714657
"chr02_3585514",2,3585514,0.117728211529595,0.388667107687301,0.762283828155543
"chr02_35888435",2,35888435,-0.443623772941805,0.548984064181037,0.420018474974455
"chr02_35922034",2,35922034,0.312419691376192,0.452768829938338,0.490993484190364
"chr02_36127767",2,36127767,0.313952290707448,0.383074863664874,0.413458214876767
"chr02_3617319",2,3617319,0.135762713967097,0.392583317642988,0.729847871769276
"chr02_36238278",2,36238278,0.506320946219489,0.494124120367442,0.306769029519866
"chr02_36464622",2,36464622,-0.142765987846701,0.469647598197296,0.761459894241721
"chr02_36493661",2,36493661,0.337488947436157,0.447356780089885,0.451505899866126
"chr02_36598084",2,36598084,-0.0355802743150804,0.339553481609906,0.916652641436768
"chr02_36624543",2,36624543,-0.0875005797697384,0.332598513068484,0.79276256006438
"chr02_36653635",2,36653635,0.149528505065945,0.348260436174038,0.668131705272994
"chr02_36728662",2,36728662,0.505136203275981,0.475759858665076,0.289650810517459
"chr02_36734552",2,36734552,-0.235520327157474,0.425385615156007,0.580437271844713
"chr02_36818675",2,36818675,0.50940619056172,0.362376795584134,0.161377653967982
"chr02_36955530",2,36955530,0.800711521950006,0.576423155871018,0.166369457236562
"chr02_36970778",2,36970778,0.480017827479514,0.472424233668249,0.310840560964559
"chr02_3698491",2,3698491,0.00132108878563031,0.379549201084172,0.997226347994297
"chr02_37008483",2,37008483,0.0219215215929154,0.402267108125801,0.956596065456859
"chr02_37022377",2,37022377,0.482425250323899,0.519374862282366,0.35409963914935
"chr02_37171699",2,37171699,-0.26383302105333,0.347886554246447,0.449125019609408
"chr02_37182712",2,37182712,-0.494828053842326,0.273348869217217,0.0717818102656702
"chr02_37194696",2,37194696,-0.628437328678928,0.374306693466377,0.0947497387499059
"chr02_37209222",2,37209222,-0.276683761265716,0.284765916721906,0.332431956301568
"chr02_37226357",2,37226357,0.523114600117424,0.529357547190362,0.324263675444829
"chr02_37244352",2,37244352,0.510062760240771,0.52587615108624,0.333270993566066
"chr02_37255639",2,37255639,-0.171010420695012,0.417022412011016,0.682196610975653
"chr02_37260706",2,37260706,-0.18659423595723,0.469474464893571,0.691463430312051
"chr02_37456547",2,37456547,-0.403392659149631,0.600980410722867,0.502863916054474
"chr02_37549788",2,37549788,-0.264260625298789,0.328986203420994,0.422794030855202
"chr02_37736303",2,37736303,-0.371814831824054,0.604288284376579,0.539070844711093
"chr02_37812320",2,37812320,0.301106964952595,0.35793895913004,0.401242211138716
"chr02_37865709",2,37865709,0.862307115703629,0.566136759441626,0.129326609432034
"chr02_3796514",2,3796514,-0.323892289614435,0.403411858485571,0.423010279095884
"chr02_38266731",2,38266731,-0.445034625326457,0.30474859765161,0.14579135336136
"chr02_38298897",2,38298897,0.411334352085646,0.526865373183101,0.435904292752663
"chr02_38309657",2,38309657,-0.032433313482926,0.374619963753542,0.931096019019653
"chr02_4042046",2,4042046,-0.149464350526046,0.484696194294455,0.758128853286629
"chr02_4130975",2,4130975,0.630489891934474,0.478085398142674,0.188773369874344
"chr02_4243440",2,4243440,0.402007131866014,0.426254272649426,0.346776847045989
"chr02_426059",2,426059,0.0273080184273198,0.427538407488055,0.949136380126651
"chr02_4304148",2,4304148,0.299403834857628,0.401842646157385,0.457112959069998
"chr02_4313968",2,4313968,-0.577974501673452,0.524706485260775,0.272014556371188
"chr02_4415287",2,4415287,-0.136643938610206,0.318133521587125,0.668016004828061
"chr02_4504911",2,4504911,0.000256894936342178,0.416732480916039,0.999508767498326
"chr02_4573656",2,4573656,0.233935795951481,0.505579122724336,0.644083955029695
"chr02_4654445",2,4654445,-0.539612148343252,0.362933138827917,0.138664068280981
"chr02_4676460",2,4676460,-0.245839846745625,0.436649695190568,0.57406562349632
"chr02_4739698",2,4739698,0.443788503517681,0.297805769860793,0.137772446584197
"chr02_4837551",2,4837551,0.612338351834694,0.352173988339998,0.0836430792757
"chr02_4859868",2,4859868,0.328753651404554,0.386606551879439,0.396158873170062
"chr02_4904589",2,4904589,0.478796454543669,0.373876136453452,0.201829850908428
"chr02_4904709",2,4904709,-0.418496173062465,0.383094637889388,0.275987322960062
"chr02_4906473",2,4906473,0.130756155992572,0.54437383144047,0.810428444999794
"chr02_4943011",2,4943011,0.981223485846272,0.545655076767771,0.0736686445736338
"chr02_503104",2,503104,0.518692678099455,0.588304606958382,0.379027772639831
"chr02_504739",2,504739,0.050328915644684,0.442932144188451,0.909649437846996
"chr02_5087009",2,5087009,-0.248505654442539,0.358741190553058,0.4893037650512
"chr02_5087747",2,5087747,-0.0592367984416455,0.33553019835517,0.860045712704791
"chr02_5141978",2,5141978,-0.727848921105817,0.317093675972561,0.0227647010514257
"chr02_5163611",2,5163611,-0.664185257515726,0.512998554244141,0.19693511923101
"chr02_5273915",2,5273915,0.580331687878754,0.492104160186235,0.239706452485201
"chr02_5293580",2,5293580,0.837669924913143,0.623891671556524,0.180929443984817
"chr02_5318464",2,5318464,-0.31180251602666,0.444092428263649,0.483438180994431
"chr02_5346055",2,5346055,0.424622621754452,0.595253289471342,0.476474761795941
"chr02_5400431",2,5400431,-0.259986242582556,0.409319104086715,0.526056149453675
"chr02_5507698",2,5507698,0.485849477439615,0.505246326491967,0.33742479216914
"chr02_5519368",2,5519368,-0.602035783449992,0.551492126985732,0.276320732918397
"chr02_5602975",2,5602975,0.540567219750528,0.627070891755427,0.389707467425546
"chr02_5613148",2,5613148,-0.681408061293041,1.61545308719345,0.673626434878107
"chr02_5633009",2,5633009,0.459757626769772,0.568149052903485,0.419364833140563
"chr02_5661071",2,5661071,0.563403209115563,0.448816456367715,0.210853695457907
"chr02_5776691",2,5776691,0.240316913062088,0.566806215757608,0.672039889485509
"chr02_5817609",2,5817609,0.272081766998667,0.556252973984884,0.625291573618634
"chr02_5890375",2,5890375,-0.511209778794921,0.458984496652886,0.266728759020944
"chr02_6062380",2,6062380,0.325993009865329,0.60476585286124,0.590467871451373
"chr02_6202901",2,6202901,-0.770969012692149,0.572324834856254,0.179501007109707
"chr02_6259334",2,6259334,0.809051112587554,0.294382757639918,0.00654706891129391
"chr02_627606",2,627606,-0.0492410201896973,0.480721008117071,0.918518294699464
"chr02_643712",2,643712,0.520178904990644,0.780186263564064,0.505720380005613
"chr02_6467938",2,6467938,0.382533525857298,0.601763949445295,0.52571820306999
"chr02_6651005",2,6651005,0.164487220331296,0.368751984134182,0.656040433130347
"chr02_6723718",2,6723718,0.984564428897102,0.604013564628436,0.104691526232525
"chr02_6768468",2,6768468,-0.256545585386391,0.397337979587221,0.519250338180061
"chr02_6778348",2,6778348,0.0896845272686733,0.52894438591156,0.86553504581219
"chr02_678324",2,678324,0.223101663327327,0.375581316465654,0.55318228706594
"chr02_6874717",2,6874717,-0.231238294170936,0.316930372222625,0.466489985808294
"chr02_706433",2,706433,0.26169291868689,0.532264233953114,0.623507234058206
"chr02_7169451",2,7169451,-0.437762846957412,0.527978317052397,0.40803413778021
"chr02_7418816",2,7418816,0.554880611754157,0.345381566118484,0.109749781404199
"chr02_7502518",2,7502518,0.0121397838563553,0.300356673533952,0.967800897544194
"chr02_7636772",2,7636772,-0.465319345151443,0.446912604192679,0.299065129230613
"chr02_7786049",2,7786049,1.24847581983741,0.476353785064828,0.00945388594010434
"chr02_8180238",2,8180238,-0.623215892347133,0.34978316315589,0.0763352756775635
"chr02_822333",2,822333,0.169579101806903,0.709703324796653,0.811397670085414
"chr02_8304824",2,8304824,-0.0462343402010106,0.387594862478737,0.905170942293201
"chr02_8508438",2,8508438,0.440539103702918,0.585090845917,0.452383967973749
"chr02_855522",2,855522,0.243823776751299,0.391759707030411,0.534411118818657
"chr02_8559217",2,8559217,0.386477671875298,0.432412539796527,0.372535153756628
"chr02_8633246",2,8633246,0.696826455377533,0.33502678803995,0.0388276043771291
"chr02_8675657",2,8675657,0.43650000621426,0.38738748654464,0.261206658052712
"chr02_8676963",2,8676963,0.715775425981462,0.328421881191407,0.0304852084502713
"chr02_8687675",2,8687675,0.822459269427384,0.461704814630556,0.0763954818084539
"chr02_8697947",2,8697947,0.250047668688694,0.400096112817518,0.532714618708626
"chr02_878918",2,878918,0.0367630859635142,0.385100694588456,0.924043663488604
"chr02_9015951",2,9015951,-0.24850637181089,0.285866551757197,0.385736027012926
"chr02_9136491",2,9136491,1.16032732096733,0.509704372136412,0.0238928816819665
"chr02_9177217",2,9177217,-0.0745840755092786,0.398869587381212,0.851861984168932
"chr02_9190133",2,9190133,0.617712795760326,0.355815965112144,0.0841192170359655
"chr02_9195475",2,9195475,-0.143113034957253,0.418358723541296,0.732653762314142
"chr02_9240959",2,9240959,-0.17229898784484,0.417923066768269,0.680586577703459
"chr02_9399095",2,9399095,-0.267832352416065,0.421558099197852,0.52594454942234
"chr02_9696089",2,9696089,1.40273776834522,0.555919118804051,0.0124168032718437
"chr02_9711962",2,9711962,0.495456550280551,0.877074344483086,0.572786610158711
"chr02_9716252",2,9716252,0.539025705853021,0.32125236947853,0.0949545683180919
"chr02_9785211",2,9785211,0.602686254349635,0.385403455186488,0.119474167394853
"chr02_9802994",2,9802994,0.643316656161971,0.380966961267648,0.0928703625912015
"chr02_9933775",2,9933775,-0.446945102632071,0.701127811657376,0.524561562379005
"chr02_9949511",2,9949511,0.205977488954716,0.408551335111834,0.614708470225545
"chr03_1001328",3,1001328,0.0693659345758988,0.299233827253812,0.816924801110427
"chr03_10093706",3,10093706,-0.749520215947086,0.538534258206279,0.165558984326627
"chr03_10125981",3,10125981,0.261330145809666,0.426897822515798,0.54113722423252
"chr03_10128770",3,10128770,0.0552984454620287,0.3601812915996,0.878137899507859
"chr03_10239128",3,10239128,0.803557286571731,0.615522365625268,0.193249183527206
"chr03_10315113",3,10315113,0.316162302746548,0.340381890158709,0.354105681551132
"chr03_10368260",3,10368260,0.0887229192270524,0.342824140893825,0.796059694751991
"chr03_10592313",3,10592313,-0.0247391611614205,0.348224947394313,0.943435108119822
"chr03_10592987",3,10592987,0.0809428508132441,0.479261837935132,0.866055924926756
"chr03_10677155",3,10677155,-0.168651019744743,0.695681568154799,0.808702600578087
"chr03_10690411",3,10690411,0.0211617727507019,0.700954776320994,0.975946145849837
"chr03_10810230",3,10810230,-0.065976423434563,0.592066168786317,0.911385489445832
"chr03_10824746",3,10824746,0.0245299246914072,0.527592569798635,0.962963560162186
"chr03_10901419",3,10901419,0.330296081747406,0.646212221999253,0.609834957395538
"chr03_1108868",3,1108868,-0.108636054066267,0.539638747390784,0.84066189492694
"chr03_1109892",3,1109892,0.28028457482776,0.385096879255494,0.467582597464369
"chr03_11103120",3,11103120,-0.562649550741256,0.419757433687716,0.181653936909581
"chr03_11154973",3,11154973,0.55376200570754,0.496716150611076,0.26627462099246
"chr03_11177170",3,11177170,0.565145109444074,0.600039527677411,0.34742477910237
"chr03_11187028",3,11187028,0.139488432374748,0.374931136633123,0.710264834115331
"chr03_11408558",3,11408558,-0.159724594917634,0.679084708613296,0.814293393375353
"chr03_1143657",3,1143657,-0.348222131010289,0.347865334457227,0.318042370334751
"chr03_11453182",3,11453182,0.181744312619912,0.611696595463438,0.766691663735737
"chr03_11456094",3,11456094,0.01647297555715,0.330919011478867,0.960348554777338
"chr03_11497864",3,11497864,-0.0237878592031393,0.68654806414998,0.972395110642952
"chr03_11503467",3,11503467,-0.304771578601787,0.453076426618094,0.501944585174029
"chr03_11619338",3,11619338,0.709947233597774,0.443211050122893,0.110796223898456
"chr03_11624208",3,11624208,-0.265259460993207,0.59256586199431,0.654900881602337
"chr03_11678706",3,11678706,-0.0186953936402006,0.675586202730104,0.977951093128567
"chr03_11698286",3,11698286,-0.831915866506607,0.355786782806193,0.00383553687139877
"chr03_11698538",3,11698538,0.607905204848265,0.457697523977571,0.185654976807067
"chr03_11892902",3,11892902,-0.223992664800818,0.315208144601543,0.478161252329972
"chr03_11901691",3,11901691,-0.247258603570117,0.517789402917574,0.633516029509336
"chr03_12047692",3,12047692,-0.399486499023567,0.447731769955851,0.37335010269966
"chr03_12125394",3,12125394,0.480772836917964,0.390921279801225,0.220221609486168
"chr03_12229763",3,12229763,0.282758461551197,0.328394947806761,0.390267335507922
"chr03_12230500",3,12230500,0.0656473096753416,0.682521273522713,0.923472580889934
"chr03_12268112",3,12268112,-0.0234366922990148,0.480911303738715,0.961180717025003
"chr03_12273333",3,12273333,-0.178744901748104,0.372048232132,0.631451354815412
"chr03_12275735",3,12275735,-0.252470666188088,0.370935438073903,0.496903314219792
"chr03_12469361",3,12469361,0.169119478467167,0.385977208482619,0.661750924478672
"chr03_12483600",3,12483600,0.298579846897837,0.705210118594169,0.672471641168784
"chr03_12643424",3,12643424,0.141987122259962,0.480333648157161,0.76784612191714
"chr03_12716265",3,12716265,-0.0102376243861499,0.458345449313045,0.98220250405019
"chr03_12821422",3,12821422,-0.0790552050956137,0.343002600366824,0.817958047732845
"chr03_12839808",3,12839808,0.13611711263664,0.262756013010497,0.605014341831718
"chr03_1285343",3,1285343,-0.563276854669937,0.456572677256197,0.21878201769232
"chr03_12962136",3,12962136,-0.0883793887668958,0.284691642697537,0.756555328500082
"chr03_12970267",3,12970267,0.462600523403864,0.348621690076944,0.186064051108023
"chr03_1300690",3,1300690,0.117816411992123,0.381274379835149,0.757642836972782
"chr03_13096644",3,13096644,-0.263252183381724,0.418617450324439,0.530168559915223
"chr03_13112006",3,13112006,-0.0562685752420293,0.73080315339287,0.938705243201262
"chr03_13137281",3,13137281,-0.0538295119525571,0.407513545269725,0.89504588584406
"chr03_13253493",3,13253493,0.108752462851612,0.343279618658791,0.751727558992882
"chr03_13442777",3,13442777,-0.0915078965095688,0.34977476855747,0.793888142921129
"chr03_13562077",3,13562077,1.14157804727984,0.713947912001274,0.111430869137503
"chr03_13643839",3,13643839,-0.0640904353841734,0.382252207318679,0.867018580011899
"chr03_13688667",3,13688667,-0.192560287957377,0.357196609322878,0.590435070035346
"chr03_13766434",3,13766434,0.329593406075844,0.361956249355304,0.363624743927804
"chr03_13774059",3,13774059,0.669439735080005,0.491512766469267,0.174753664456582
"chr03_14353032",3,14353032,0.275053615584739,0.660347974078397,0.677476934650401
"chr03_14537129",3,14537129,0.502874866255297,0.491990771754584,0.307976421969779
"chr03_14697969",3,14697969,0.639589249503501,0.472401135961635,0.177315826380791
"chr03_15194353",3,15194353,0.136552410124807,0.384365963023943,0.722769914074084
"chr03_1525490",3,1525490,0.216773001855358,0.585301487822199,0.711511223346727
"chr03_15264935",3,15264935,0.203302071143554,0.401378447864246,0.61306529864543
"chr03_15593292",3,15593292,0.239497659765391,0.404490143769294,0.554464137646902
"chr03_15640430",3,15640430,0.131783415005884,0.403207870095947,0.74413786189708
"chr03_15655886",3,15655886,-0.707103750975762,0.586397037480761,0.229323658760168
"chr03_15754074",3,15754074,0.3857501564041,0.450936227517932,0.393345257905111
"chr03_15829162",3,15829162,0.116747546014324,0.397800475511468,0.769462187126326
"chr03_15829408",3,15829408,0.196849576920755,0.412955783922413,0.634115193009555
"chr03_15830760",3,15830760,2.32255935595913,1.39466955089678,0.0974400758799329
"chr03_15861617",3,15861617,0.904685135408727,3.03649965609906,0.766065342996281
"chr03_15894213",3,15894213,0.372074690734962,0.522559331686516,0.477292394896806
"chr03_15939275",3,15939275,0.169349713784413,0.380010142179007,0.656342876848137
"chr03_15947555",3,15947555,0.13427947603148,0.42941256015984,0.754835534002727
"chr03_16000222",3,16000222,0.0894075196038244,0.379670796422483,0.814075421543569
"chr03_16014858",3,16014858,0.228334772038124,0.402007874463977,0.570691387230478
"chr03_16035446",3,16035446,0.594699122809843,0.551482315524669,0.282189603088566
"chr03_16067521",3,16067521,1.15569678882792,0.447049373336461,0.0104553969604676
"chr03_16077170",3,16077170,-0.291634152568804,0.422620481716982,0.490967599717758
"chr03_16094221",3,16094221,0.306790593211588,0.406361703956101,0.451169049366473
"chr03_16222722",3,16222722,0.175602426795649,0.628564297708435,0.7802534630298
"chr03_16328285",3,16328285,-0.172640026706745,0.489413295958861,0.724653784007741
"chr03_16425415",3,16425415,0.0714355366875026,0.390640244880578,0.855089777269577
"chr03_16598009",3,16598009,0.653473320026137,0.538694219398738,0.226555951993234
"chr03_16742796",3,16742796,-0.0885546208079973,0.422327430817129,0.834132263634248
"chr03_16742934",3,16742934,0.508297800919721,0.364339628835443,0.164550239812939
"chr03_16762626",3,16762626,0.54987310591774,0.515712612793937,0.287620420154557
"chr03_16834104",3,16834104,0.881548628214887,0.41286798867559,0.0339811903825132
"chr03_17020278",3,17020278,-0.108255205504406,0.394929617874765,0.78428525878964
"chr03_17681198",3,17681198,0.33838354953194,0.505361995754278,0.503905473024464
"chr03_17682826",3,17682826,0.295162356928302,0.399593918824975,0.460995152146704
"chr03_17683519",3,17683519,0.573907517949834,0.443703000503173,0.197370146961262
"chr03_17760762",3,17760762,-0.140946500683299,0.581211964456961,0.808641576874644
"chr03_17883392",3,17883392,-0.352859591495871,0.513088624008028,0.492440136911847
"chr03_18072848",3,18072848,0.619798148104337,0.486918902151972,0.204554333846097
"chr03_18085299",3,18085299,0.0316694152230355,0.415919147096371,0.939382441739083
"chr03_18260149",3,18260149,0.102163412019308,0.506024266396131,0.840207693157803
"chr03_18649390",3,18649390,0.000462615470837591,0.435994103239448,0.999154471241341
"chr03_18748635",3,18748635,0.287075211322872,0.462059196944072,0.535123582674283
"chr03_18801960",3,18801960,0.0792603296248444,0.514076337730032,0.877625584399237
"chr03_18855716",3,18855716,0.116260103142423,0.405532798815667,0.774654937263075
"chr03_188796",3,188796,-1.00690274728123,0.383510517181969,0.00933172745273887
"chr03_19185395",3,19185395,-0.238157874178683,0.404828642723621,0.557009453203068
"chr03_19297286",3,19297286,0.319637909082871,0.405113781275473,0.431056004889068
"chr03_19311665",3,19311665,0.102910387166759,0.354053767458033,0.771614712800747
"chr03_19352108",3,19352108,-0.510587157589953,0.581380669926598,0.380887646856086
"chr03_19416869",3,19416869,-0.101444335237616,0.354336686309999,0.77495408510636
"chr03_19446486",3,19446486,-0.309692429421432,0.330094237493734,0.349293542079364
"chr03_19608123",3,19608123,0.117199030891811,0.418239356631218,0.779602760015945
"chr03_19680656",3,19680656,0.163022479550989,0.435029622975295,0.70825782646629
"chr03_19788412",3,19788412,0.309462250259458,0.368163393253466,0.401615296251584
"chr03_1980603",3,1980603,0.263885087971317,0.406186950509921,0.516665993069355
"chr03_19858345",3,19858345,0.0796231639881171,0.444803249139178,0.858115698490054
"chr03_19916009",3,19916009,0.554424371501156,0.546628981319765,0.311702373113162
"chr03_20024040",3,20024040,-0.222605655825447,0.362305860933306,0.539650979018462
"chr03_20127594",3,20127594,0.191143337102858,0.359667001911617,0.595708960022476
"chr03_20265343",3,20265343,0.599812659343243,0.686359336130269,0.383234212898269
"chr03_20314011",3,20314011,-0.0736138784573654,0.425940093861144,0.862964977300967
"chr03_20394753",3,20394753,0.562061936534292,0.396805254546555,0.158217831803992
"chr03_20394777",3,20394777,0.972574611119711,0.543736390087545,0.0752016870185679
"chr03_20423596",3,20423596,0.468229248040075,0.399022951395044,0.24203642312169
"chr03_20530043",3,20530043,0.168858488202346,0.307731665748508,0.583819033857435
"chr03_20671515",3,20671515,0.81428858693468,0.54653480652408,0.13784674269005
"chr03_2071465",3,2071465,-0.287033126534226,0.409046168885576,0.483686155746666
"chr03_20779590",3,20779590,-0.132793850705411,0.57037284847528,0.816143378846574
"chr03_2086866",3,2086866,-0.387270018806703,1.94042690764765,0.842015079111648
"chr03_21138363",3,21138363,0.360163888692526,0.416859297900658,0.388641989597753
"chr03_21216900",3,21216900,0.516292128998657,0.929061072811452,0.579037026718959
"chr03_21234170",3,21234170,-1.01340428275114,0.804618890700876,0.0347618675244021
"chr03_21257226",3,21257226,-0.473136102584931,0.707392213273052,0.50437704500746
"chr03_21318748",3,21318748,-0.137766106033922,0.412992656314422,0.739051272414982
"chr03_21321809",3,21321809,1.0364386016239,0.40143965537275,0.010554341553821
"chr03_2135890",3,2135890,-0.0879911835243092,0.768559969867012,0.908967261321359
"chr03_21367467",3,21367467,-0.0608996155252726,0.538180348848266,0.910020223047107
"chr03_21486841",3,21486841,-0.58659592459685,0.706385591291124,0.407307242944863
"chr03_21494094",3,21494094,-0.336659887561268,0.400419729604841,0.401497531665616
"chr03_21498939",3,21498939,0.562961407198372,0.533774042380071,0.292862962740037
"chr03_21558988",3,21558988,-0.383884733860668,0.32926327557625,0.24506854911221
"chr03_21710103",3,21710103,0.0589674347738764,1.61487704081319,0.970908593991173
"chr03_21736763",3,21736763,0.359891732705194,0.284169786438183,0.206841248976542
"chr03_22122371",3,22122371,0.405712249828753,0.397830508940239,0.309068476811698
"chr03_22122940",3,22122940,0.33629246810284,0.522438954030909,0.520520491047648
"chr03_22200638",3,22200638,0.00257739586427874,0.347249671634601,0.99408541599498
"chr03_22224976",3,22224976,0.545675089516919,0.383270654603792,0.15610567825604
"chr03_22262677",3,22262677,0.307562812609206,0.514385955594714,0.550578547407423
"chr03_22350599",3,22350599,-0.0244112627947857,0.431699323842767,0.954963437388125
"chr03_22378574",3,22378574,0.0168439145897992,0.320693094096418,0.958164815043599
"chr03_22385281",3,22385281,0.339749297373032,0.332422260782753,0.308014755385768
"chr03_22498666",3,22498666,-0.245366393414884,0.437358336828726,0.575422060510728
"chr03_22518995",3,22518995,0.261859474735388,0.573031341460372,0.648194415023075
"chr03_22579468",3,22579468,0.228495446529024,0.340757545657588,0.503291704090349
"chr03_22634300",3,22634300,0.481767147911455,0.330589751559617,0.146626836984941
"chr03_22649934",3,22649934,-0.57902412241549,0.550178399641145,0.29389159894006
"chr03_22777235",3,22777235,-0.0273875121018818,0.443182193952828,0.95078681701987
"chr03_23036162",3,23036162,0.148571589666631,0.535564054057641,0.781755098614965
"chr03_23040533",3,23040533,1.20979676419188,0.63326370338668,0.0575320241482394
"chr03_231817",3,231817,-0.187058014382828,0.29917378940135,0.532531457385967
"chr03_23182913",3,23182913,0.492806574443875,0.659995953335848,0.456146200032826
"chr03_23226147",3,23226147,0.0515397553137973,0.321592317545921,0.87283712194899
"chr03_2326005",3,2326005,-0.0324514904056628,0.285318771823174,0.909561582642789
"chr03_2326859",3,2326859,-0.0586326254711196,0.429456042181457,0.891543585827965
"chr03_23336652",3,23336652,-0.33626111457113,0.53776501781285,0.532501925355619
"chr03_234609",3,234609,-0.156152569051592,0.282584415747134,0.58117245200629
"chr03_23513882",3,23513882,0.0380229245067767,0.333144780903337,0.909248333711597
"chr03_23545981",3,23545981,-0.015988760056814,0.441375668429372,0.971139764607769
"chr03_23566102",3,23566102,-0.610771204466289,0.398199419702686,0.126675263074987
"chr03_23787251",3,23787251,0.25262688283901,0.449035564736046,0.574347743345963
"chr03_2387535",3,2387535,-0.430703329149907,0.515748459428375,0.40467107443007
"chr03_2390250",3,2390250,-0.654441480864534,0.384550510554532,0.0903638675218569
"chr03_23908438",3,23908438,0.261594393501809,0.331520325099318,0.431016799765213
"chr03_24008858",3,24008858,0.851296490257795,0.400355559329598,0.0347187442737577
"chr03_24023545",3,24023545,0.434874734254578,0.29824265376549,0.146398784452882
"chr03_24100225",3,24100225,0.797174111992831,0.377507078648142,0.0359744270343583
"chr03_24149785",3,24149785,0.814986963024538,0.542161972932897,0.134384527977468
"chr03_24152717",3,24152717,-0.46783952520164,0.357139746456018,0.191734123299919
"chr03_24237910",3,24237910,-0.268722347921994,0.411241953941391,0.514233965149592
"chr03_24282918",3,24282918,0.145316360130636,0.336091587127651,0.665944480940905
"chr03_24283868",3,24283868,-0.430949449132243,0.371935577443782,0.247994600436531
"chr03_2429369",3,2429369,-0.213279713752854,0.370246837004012,0.565240670207004
"chr03_24587987",3,24587987,0.915388692912018,0.408270303247372,0.0260687963441509
"chr03_24798908",3,24798908,0.205042959899913,0.386639213975809,0.596486528002054
"chr03_24828609",3,24828609,0.708554730502442,0.450161623545891,0.117091874588016
"chr03_24929987",3,24929987,-0.659960763381036,0.65900613671344,0.317838477060359
"chr03_25020290",3,25020290,-0.36755507046712,0.44891280382344,0.413908597338554
"chr03_25106204",3,25106204,0.394950273790172,0.328320047729229,0.230442137031698
"chr03_25109800",3,25109800,0.784223562665403,0.405530887402629,0.054568254910135
"chr03_25172363",3,25172363,0.356897946202821,0.475926737314618,0.454208946093134
"chr03_25362402",3,25362402,0.238902576495946,0.441973905479464,0.589438403717128
"chr03_25391239",3,25391239,-0.0591832114383237,0.395018810123257,0.881056924976122
"chr03_25797916",3,25797916,0.00865945440556004,0.361071059680611,0.980890693061615
"chr03_25822539",3,25822539,-0.160080326054157,0.359906837769363,0.656965099388634
"chr03_25840451",3,25840451,0.246729506456404,0.689801763412136,0.720964406516482
"chr03_25855640",3,25855640,0.0414004829157477,0.397565990899463,0.917168258753275
"chr03_25878516",3,25878516,-0.376665288379968,0.668566248093761,0.573808267474785
"chr03_26108585",3,26108585,-0.192922198510843,0.424241068167397,0.649792231274662
"chr03_26175681",3,26175681,-0.246249605920866,0.399264082632784,0.53810599024522
"chr03_26321769",3,26321769,0.233168016732122,0.509215820002664,0.647531625454684
"chr03_26455552",3,26455552,0.230422039020837,0.263467302087127,0.382869905694709
"chr03_26753134",3,26753134,-0.0648051246275827,0.479940292965105,0.892728014931411
"chr03_26876027",3,26876027,-0.0179572610642538,0.234411604391345,0.939014981181023
"chr03_26956585",3,26956585,-0.0976923846702675,0.401138809916041,0.807842374154284
"chr03_27153171",3,27153171,-0.511806590520393,0.387607342235992,0.188225029235377
"chr03_27199618",3,27199618,-0.430980022319943,0.357729271539365,0.229739022930661
"chr03_27267154",3,27267154,0.506476338139805,0.608206168168589,0.406000956576181
"chr03_27318643",3,27318643,0.102586028886094,0.514070299113468,0.842033342165156
"chr03_27443464",3,27443464,0.224198202379341,0.374556128227557,0.550147026625161
"chr03_27451048",3,27451048,0.370292841325465,0.405903749397736,0.362742884952205
"chr03_27705394",3,27705394,-0.18109590178949,0.621122702876511,0.770928157319441
"chr03_27787737",3,27787737,0.752206608258064,0.426105032625834,0.079061303222114
"chr03_27856820",3,27856820,0.682290606040624,0.795694032378918,0.392222395061078
"chr03_2796562",3,2796562,-0.609274236276576,0.459065759191143,0.185977087633437
"chr03_28040450",3,28040450,-0.546093253574327,1.03043104838307,0.596732409983565
"chr03_28049136",3,28049136,-0.455726982658689,0.850019291007515,0.592468563544702
"chr03_28103996",3,28103996,-0.0205107030533327,0.518184996723591,0.968466609069037
"chr03_28139772",3,28139772,0.270054908255304,0.394915548821726,0.494886391793102
"chr03_28148031",3,28148031,-0.326850866379232,0.554354576226743,0.556130324334176
"chr03_28176415",3,28176415,-0.00540987060958287,0.459629725278671,0.990620976570644
"chr03_28198260",3,28198260,-0.572634625189494,1.686094012631,0.734503005992406
"chr03_28205324",3,28205324,0.0065041321853414,0.455602259044446,0.988624314085351
"chr03_28230820",3,28230820,0.384688446153405,0.382734726827923,0.316079429020506
"chr03_28285139",3,28285139,0.495599740714681,0.404882424408862,0.22239208045415
"chr03_2834597",3,2834597,0.0982140245678806,0.300715853182836,0.74431659715473
"chr03_2842724",3,2842724,-0.0885030860293341,0.425653456409073,0.835503990358761
"chr03_28556095",3,28556095,0.788296882804502,0.50434131027009,0.119652235064143
"chr03_28578078",3,28578078,0.125752868806728,0.38870447201508,0.746646199480544
"chr03_28614221",3,28614221,0.173104334418497,0.392638855910679,0.65978751687642
"chr03_28849698",3,28849698,0.556898035307086,0.462590932417133,0.230085462456646
"chr03_28869262",3,28869262,0.370866768160568,0.496233882662347,0.45573568841266
"chr03_2909214",3,2909214,0.260407315184381,0.360252276372301,0.470631116580406
"chr03_2910309",3,2910309,0.719783540007541,0.585067546553806,0.220067860263778
"chr03_29114058",3,29114058,0.0265012097722632,0.259522546453971,0.918769060574304
"chr03_2918766",3,2918766,0.328376445395861,0.59133902594907,0.579312697838553
"chr03_2922524",3,2922524,-0.00332449698680648,1.40671068068086,0.998116742606392
"chr03_2982329",3,2982329,-0.102929772236507,0.311019465121068,0.741039139396448
"chr03_29900229",3,29900229,-0.027243009733354,0.415279606227154,0.947761533615155
"chr03_29931262",3,29931262,-0.788590006927507,0.48571988137694,0.106071142082192
"chr03_29944188",3,29944188,3.17126589504551,1.9277517651407,0.101552247004314
"chr03_29957677",3,29957677,-0.361429850945626,0.372809098943765,0.333496003299342
"chr03_30003457",3,30003457,-0.0890327411289604,0.429288749743156,0.835914886598574
"chr03_30079439",3,30079439,-0.350165279627845,0.528664647209584,0.508515916865866
"chr03_30117163",3,30117163,1.70804010974098,1.18148537870665,0.14985822488722
"chr03_30380429",3,30380429,0.605186663189386,0.499578136819716,0.22719500706373
"chr03_30501080",3,30501080,-0.152229450178993,0.594631826472009,0.798213152107836
"chr03_30583644",3,30583644,0.166961314070647,0.394437171103195,0.672545426327975
"chr03_30666810",3,30666810,-0.39667956906942,0.482520492858826,0.412014499236756
"chr03_30746353",3,30746353,-0.167459686216674,0.299967759304527,0.577301488394622
"chr03_30916675",3,30916675,-0.590243385848737,0.476111529185193,0.216554955451666
"chr03_30990591",3,30990591,-0.0556224160728789,0.599309736340661,0.926148187422353
"chr03_31181670",3,31181670,0.0358161558890515,0.334795682610478,0.914914390158779
"chr03_31294382",3,31294382,-0.479735628240007,0.413428837565004,0.24729735465459
"chr03_31530910",3,31530910,0.0949765430243588,0.598487198659223,0.874072246540942
"chr03_31558060",3,31558060,0.287382105416214,0.399488459190361,0.472762253916399
"chr03_31609667",3,31609667,0.0452518468194967,0.512948423382102,0.929792152841798
"chr03_31635927",3,31635927,-0.343709379124334,0.342679030142425,0.31708800363571
"chr03_31638842",3,31638842,-0.369314729273668,0.327317447416535,0.260562296171382
"chr03_31675698",3,31675698,-0.329495174502426,0.51563749668202,0.523561651532677
"chr03_31711899",3,31711899,0.130385695991265,0.451998168278559,0.773294031656625
"chr03_31772697",3,31772697,-1.05374118732187,0.518053422430899,0.0115991840012002
"chr03_31805256",3,31805256,1.26828378689834,1.02392002990727,0.216947128180007
"chr03_3182265",3,3182265,0.0281178341773511,0.523413373825453,0.957212582461405
"chr03_31898795",3,31898795,0.301065949557142,0.588124103490299,0.609288152845703
"chr03_31964523",3,31964523,-0.107728621122362,0.446958864311207,0.809785781683457
"chr03_3210137",3,3210137,0.250942764790238,0.570266477559939,0.660387105678047
"chr03_3211100",3,3211100,0.0273889566269645,0.539411631007926,0.95955576897062
"chr03_32218554",3,32218554,0.595561616122723,2.01124466207377,0.76745345539742
"chr03_3226157",3,3226157,0.415222551478507,0.453519327081567,0.361018914463457
"chr03_32312317",3,32312317,-0.39545547208354,0.494493066425023,0.424836895688517
"chr03_32355634",3,32355634,0.0480888093529188,0.458555352865757,0.916585470863031
"chr03_3240274",3,3240274,0.425800032788558,0.279128131542857,0.128747116201672
"chr03_32439683",3,32439683,0.477484117245353,0.564771024661672,0.398886841398767
"chr03_3299930",3,3299930,0.322332608984993,0.416938695969627,0.440393641794522
"chr03_33039768",3,33039768,-0.52211296423684,1.46786988644467,0.722450090831827
"chr03_33200603",3,33200603,-0.338741921822475,0.693863905300697,0.625953614513964
"chr03_3539273",3,3539273,-0.193469722850637,0.320717334960391,0.547042517540249
"chr03_3602025",3,3602025,0.324778207818412,0.364722098840764,0.374293715478893
"chr03_3745166",3,3745166,0.0168244072319794,0.524160671897695,0.974426549954102
"chr03_3801126",3,3801126,0.174975942340353,0.31398195729905,0.577968594330514
"chr03_3816185",3,3816185,0.16353016333855,0.442837716947387,0.712317239107336
"chr03_3881550",3,3881550,1.8168054591149,0.902841050709246,0.0455480009978247
"chr03_3961405",3,3961405,-0.400708648066399,0.33070228936319,0.22708244387244
"chr03_4013990",3,4013990,0.177538123151265,0.308406647236246,0.56550035631826
"chr03_4018357",3,4018357,0.378542893686358,0.31957611383693,0.237636123184378
"chr03_409546",3,409546,-0.14026149248366,0.561953156814401,0.8031595365458
"chr03_4104144",3,4104144,-0.0223619589695545,0.406323766955897,0.956166490093558
"chr03_4355594",3,4355594,0.378795858637346,0.397752613609641,0.342091404819158
"chr03_4449413",3,4449413,0.286310022931843,0.507414969730408,0.573224336108773
"chr03_450475",3,450475,-0.218640510737998,0.490391660244556,0.656196110789083
"chr03_4545345",3,4545345,-0.166167441855094,0.426639515836072,0.697342014812892
"chr03_4546886",3,4546886,1.85741480417164,2.3352156333669,0.427342071798726
"chr03_4548052",3,4548052,0.352732962196853,0.484109610973339,0.467098115620214
"chr03_4623015",3,4623015,0.0992867316281831,0.330220223261771,0.763984567214469
"chr03_4634076",3,4634076,-0.0916957727977206,0.53872768998464,0.865021217479726
"chr03_4726300",3,4726300,0.0150034399204628,0.521208415333482,0.97706450729884
"chr03_4824885",3,4824885,0.284682237549077,0.477835417658495,0.55200962759748
"chr03_4895555",3,4895555,0.166852363020325,0.918386514090818,0.856020745169918
"chr03_4910420",3,4910420,-0.114315936981484,0.681344296774435,0.866928481170385
"chr03_4946328",3,4946328,-0.150268675707366,0.695863067761746,0.829253460025481
"chr03_500418",3,500418,-0.180985063569551,0.320918353731576,0.57342291860166
"chr03_5058299",3,5058299,-0.207737248729359,0.63581725320055,0.744222927733086
"chr03_5059394",3,5059394,0.115467514352758,0.536407335825941,0.829786619629895
"chr03_5274501",3,5274501,-0.303905319906562,0.812850284598185,0.708898543711369
"chr03_5295902",3,5295902,0.232567824209582,0.348572807711798,0.505425061428447
"chr03_5318681",3,5318681,-0.366313987443959,0.497967311888797,0.462837791163125
"chr03_5322779",3,5322779,0.696982926397254,0.489634447369981,0.156180009086635
"chr03_5328864",3,5328864,-0.00677413594769405,0.489498995769901,0.98897249917082
"chr03_5372601",3,5372601,0.269063517892164,0.452261279270087,0.5525734097895
"chr03_5396383",3,5396383,-0.233147433745927,0.619277620365968,0.706963096438642
"chr03_5397676",3,5397676,-0.126488568019823,0.342921084774401,0.712631023832856
"chr03_5425700",3,5425700,-0.197771476372083,0.333142114980718,0.553423915809298
"chr03_5436624",3,5436624,-0.740506390305143,0.568545269256631,0.194280429994976
"chr03_5440336",3,5440336,0.0451246797270528,0.460825576071936,0.922094274585889
"chr03_5443043",3,5443043,-0.447490236090516,0.375881669428551,0.235279264813002
"chr03_5604594",3,5604594,0.111505325918017,0.398234811233964,0.779772102640577
"chr03_5653590",3,5653590,0.0825627921074101,0.633640486778477,0.896462736817303
"chr03_5654207",3,5654207,0.0137251901018089,0.574339644264441,0.980958684119155
"chr03_5766779",3,5766779,0.146892985517411,0.394181569061147,0.709807258728483
"chr03_5788535",3,5788535,-0.173891925343128,0.557671866514868,0.755508878803008
"chr03_5840660",3,5840660,-0.274375803512868,0.277848234636129,0.324607703696296
"chr03_5864214",3,5864214,0.179276639669752,0.545901401136435,0.742954420788861
"chr03_5914287",3,5914287,0.0898482711554607,0.552642025139777,0.871016162074431
"chr03_6005077",3,6005077,-0.123433514161206,0.407303112018836,0.762170962391906
"chr03_6346944",3,6346944,0.202140023181414,0.605828222916892,0.738991791478925
"chr03_6385523",3,6385523,-0.00788337981370546,0.416448847081934,0.984916099926429
"chr03_6422536",3,6422536,-0.0590748496994138,0.381759242872749,0.877181777013858
"chr03_6473125",3,6473125,-0.217698497051515,0.612663005252148,0.72272137689836
"chr03_6616577",3,6616577,-0.00366615569572559,0.320540879383994,0.990886044728962
"chr03_6723946",3,6723946,-0.165325948778673,0.318531761376026,0.604325878535154
"chr03_6915355",3,6915355,0.143394905357582,0.413970483083058,0.729419923388652
"chr03_6940830",3,6940830,-1.62497769068614,2.03723757292405,0.426041092743579
"chr03_7012355",3,7012355,0.830262045864401,0.884335844693961,0.34895549264099
"chr03_7052602",3,7052602,0.435809309655923,0.34411857496836,0.206847061172875
"chr03_7058063",3,7058063,-0.0788437747536932,0.502442239829217,0.875467758164059
"chr03_7086940",3,7086940,0.102694101720999,0.506708121248294,0.83960280128529
"chr03_7128899",3,7128899,-0.561945984578045,0.359204532562968,0.119324404814899
"chr03_7184618",3,7184618,0.0155198803474406,0.281200526919845,0.956041829408741
"chr03_7186981",3,7186981,0.0679124513656859,0.31513539567585,0.829598549424489
"chr03_7283460",3,7283460,-0.158028863664583,0.331891277864519,0.634497658776315
"chr03_7302854",3,7302854,0.121028036906694,0.436020291537935,0.781630219728901
"chr03_7303815",3,7303815,0.054418367717858,0.439498815986479,0.901584713634697
"chr03_7386448",3,7386448,1.00973670905864,0.765589690748688,0.18873341518909
"chr03_7407317",3,7407317,-0.104211818331606,0.323008275809972,0.74731842342767
"chr03_7448985",3,7448985,-0.188718467894319,0.384568394180216,0.624165032351055
"chr03_750431",3,750431,-0.099423519897357,0.2727695455212,0.715878307636589
"chr03_7522300",3,7522300,0.429158270669149,0.364404824780033,0.240338412106378
"chr03_753585",3,753585,-0.124676918517935,0.410307411080082,0.76155356523017
"chr03_7536799",3,7536799,-0.16681805219514,0.480833530900717,0.729010362579339
"chr03_7559034",3,7559034,-0.886412974807683,0.436368314483773,0.0435636910874756
"chr03_7571318",3,7571318,0.420775736411997,0.527488591183033,0.426007171766678
"chr03_7571563",3,7571563,-0.173995646461094,0.330271285041902,0.598906822682121
"chr03_7589135",3,7589135,0.279187775829541,0.342389212210199,0.41582209463802
"chr03_7611870",3,7611870,0.0959892478986148,0.984140795402907,0.922399835217404
"chr03_7674571",3,7674571,0.712588280875934,1.07590210198812,0.508542139780975
"chr03_7678916",3,7678916,0.0491840543099897,0.356486827393593,0.890406006795156
"chr03_7759782",3,7759782,0.191499274922393,0.320955326733641,0.551423458513153
"chr03_7772984",3,7772984,-0.317765203156625,0.422316461115528,0.452688314799983
"chr03_7796230",3,7796230,0.2780984639368,0.31539819962154,0.378993252766362
"chr03_7811915",3,7811915,-0.209547418571731,0.532507768412135,0.694367997711607
"chr03_7856579",3,7856579,0.256201059619229,0.661459489529772,0.698932333276104
"chr03_7859787",3,7859787,0.0385828462229654,0.361370690038925,0.915081638177658
"chr03_7860047",3,7860047,0.208535593417253,0.493960546277233,0.673360910232858
"chr03_7864765",3,7864765,0.545063898936377,0.382795897853391,0.15605676993865
"chr03_7864777",3,7864777,-0.194569652349514,0.348730430237561,0.577520813283804
"chr03_7883246",3,7883246,-0.111852508615726,0.345991934123952,0.746825583149559
"chr03_7883863",3,7883863,0.202765357880935,0.359170082480682,0.573029893167633
"chr03_792127",3,792127,-0.293208827860553,0.325682567143704,0.369065052700111
"chr03_7951326",3,7951326,-0.0682793755365765,0.387781801726724,0.860414480938379
"chr03_8050456",3,8050456,0.109491029215746,0.572411536068744,0.848503020797891
"chr03_808764",3,808764,0.275208338187838,0.395328383461746,0.487154636135806
"chr03_8123164",3,8123164,0.53922944124804,0.351413106028098,0.126520895412177
"chr03_8242901",3,8242901,0.100058699345482,0.574655522641157,0.861950392704696
"chr03_8294130",3,8294130,0.392257681350372,0.399492824034835,0.327358770315862
"chr03_8306305",3,8306305,0.0194386741870005,0.494479447632495,0.968681935858991
"chr03_8310745",3,8310745,0.138239157126918,0.452190155048671,0.760148082542711
"chr03_8431236",3,8431236,-0.301058479160019,0.366952348582077,0.412962995785284
"chr03_846774",3,846774,-0.460073439097656,0.371936173718276,0.217571190028262
"chr03_8801367",3,8801367,0.136708362491078,0.341608047686767,0.689449680717821
"chr03_8842747",3,8842747,0.0832534487703356,0.585111786397999,0.886999203069351
"chr03_8934458",3,8934458,0.0612242561987841,0.55781318702858,0.912713316153575
"chr03_8935487",3,8935487,1.35162703192327,0.995996801575292,0.176315083615827
"chr03_8948417",3,8948417,0.0666800221175663,0.5118352411092,0.896480727917481
"chr03_8953417",3,8953417,0.139530947813171,0.543068830636167,0.797500565704807
"chr03_8969200",3,8969200,0.317796928090388,0.611580358663811,0.603903219554462
"chr03_8996880",3,8996880,-0.228156615324963,0.500285723916442,0.648854478724706
"chr03_9079668",3,9079668,0.21507133980225,0.364281599824649,0.555600117325638
"chr03_9182171",3,9182171,0.0118858650665175,0.374358908006216,0.974703629023768
"chr03_9238670",3,9238670,0.148711524866854,0.334272571428932,0.656894140389632
"chr03_9355194",3,9355194,0.201328307035737,0.347629916748367,0.563152618181721
"chr03_9438089",3,9438089,0.13849592510195,0.447081501896567,0.757057366629733
"chr03_9530058",3,9530058,-0.702098782495455,0.55805986658697,0.209842340993617
"chr03_9697826",3,9697826,0.147976641464595,0.38175468519304,0.698714020696618
"chr03_9729108",3,9729108,0.0721438368065606,0.390955329636182,0.853785813018206
"chr03_9766720",3,9766720,-0.851521100653486,0.423896161731398,0.0459239332761366
"chr03_983968",3,983968,0.0678283300030387,0.388657586096996,0.86163642400723
"chr04_1015336",4,1015336,-0.474096084880642,0.374494050227256,0.207020910483288
"chr04_10201069",4,10201069,-0.0161571684092934,0.380561930568345,0.966178121728539
"chr04_10207323",4,10207323,0.0648523137662664,0.420511198351457,0.877592132934774
"chr04_10251137",4,10251137,-0.36706996795715,0.582086625834134,0.52902606321255
"chr04_10251505",4,10251505,0.307914590044732,0.462665955824559,0.506494835219068
"chr04_10255496",4,10255496,0.18992354649572,0.381307999678711,0.618980174189295
"chr04_10340200",4,10340200,0.462768970988009,0.482242732216575,0.338423611431339
"chr04_10367500",4,10367500,-0.215901173876887,0.626711906328415,0.730839067050824
"chr04_10399180",4,10399180,0.201059331394106,0.53414755702555,0.707016015647346
"chr04_10399669",4,10399669,-0.208329216824829,0.510478897394095,0.683639470244373
"chr04_10400684",4,10400684,-0.340286060191488,0.534422819435232,0.525036233032681
"chr04_10450933",4,10450933,0.150390174400655,0.294246013611805,0.60985089690998
"chr04_10493198",4,10493198,0.237536508305027,0.397289156806446,0.550597860507736
"chr04_10518975",4,10518975,-0.236718954019295,0.374541278390491,0.528104192086299
"chr04_10594404",4,10594404,-0.11235388025159,0.427676627031385,0.793050525913618
"chr04_10595695",4,10595695,0.424668560778287,0.358259877814617,0.237301221040128
"chr04_10701657",4,10701657,-0.393093417335308,0.523087925577777,0.453256848131592
"chr04_10750938",4,10750938,0.370559420144275,0.402083216945713,0.357865122123204
"chr04_10909774",4,10909774,0.283750258718328,0.784039555395287,0.717808611004158
"chr04_10926116",4,10926116,0.314356958568283,0.326635849798223,0.337024510238202
"chr04_10970422",4,10970422,-0.511243895847429,0.422300837464088,0.227493275682482
"chr04_11143852",4,11143852,0.589906854365154,0.768404633507258,0.443582595763958
"chr04_11222087",4,11222087,-0.574296312002303,0.353768657628379,0.106110073834866
"chr04_11292648",4,11292648,0.71431022087836,0.359725921622097,0.0484528259399428
"chr04_11312021",4,11312021,0.217627535153753,0.319239576219357,0.496225520340037
"chr04_11374272",4,11374272,0.222054179542113,0.40549217370098,0.584575194798465
"chr04_11469802",4,11469802,-0.198027962578635,0.489916188308402,0.68649836825861
"chr04_11563778",4,11563778,0.129843020389671,1.43406318419237,0.9279484723336
"chr04_11605881",4,11605881,-0.331383818964127,0.393008958617187,0.400141120076878
"chr04_11671692",4,11671692,-0.381557706670264,0.651872090650837,0.558998384711335
"chr04_11724660",4,11724660,-0.350268072445147,0.520669950652778,0.501910122805106
"chr04_11806472",4,11806472,0.0693404444437533,0.420351281832869,0.869145926300386
"chr04_11968548",4,11968548,-0.11834035539232,0.507849756736544,0.815985966305138
"chr04_1268887",4,1268887,0.0765391541158635,0.350372246125645,0.827303895442581
"chr04_12729683",4,12729683,0.452615271794514,0.371409106385325,0.224436876122065
"chr04_1288265",4,1288265,0.288156997672331,0.593081250877162,0.627603363869592
"chr04_12962635",4,12962635,0.657339009493967,0.645229834065755,0.309562986808069
"chr04_1322698",4,1322698,0.780387167538947,0.482967482510318,0.107734161772651
"chr04_1337924",4,1337924,-0.4774914886587,0.442885564416745,0.282290810666889
"chr04_13423957",4,13423957,0.417708423312774,0.400810066957427,0.298614512187344
"chr04_13462846",4,13462846,-0.143103611569188,0.42609160161986,0.737340082562489
"chr04_13529219",4,13529219,0.215233924011557,0.456550950324964,0.637852073292501
"chr04_13533082",4,13533082,-0.371482178496024,0.479167109320512,0.439111843179639
"chr04_13684804",4,13684804,0.97930658521102,0.471379943419452,0.0390490835621719
"chr04_13847710",4,13847710,0.0924981109287728,0.382679435201605,0.809254951888132
"chr04_1392212",4,1392212,-0.0616081847507672,0.278939414116156,0.825425648154824
"chr04_15073878",4,15073878,0.189267481462082,0.378098357322836,0.6172273718026
"chr04_15133085",4,15133085,-0.153280827885737,0.656974196288165,0.815760369916366
"chr04_15207687",4,15207687,-0.287086480896846,0.618340170365512,0.642955755722814
"chr04_1521694",4,1521694,0.069579014893236,0.389380883262868,0.858363655826304
"chr04_15442203",4,15442203,0.0785463734482903,0.385738334600497,0.838855919653358
"chr04_15510727",4,15510727,-0.0968890527930739,0.368512872927798,0.792887742041488
"chr04_15538835",4,15538835,-0.109588031886119,0.472066930186447,0.816666283549971
"chr04_15545878",4,15545878,0.164329577047909,0.433021331368245,0.704728824783613
"chr04_15582297",4,15582297,-0.191254122630085,0.51939043059734,0.713098567802794
"chr04_15596623",4,15596623,0.087508099579793,0.392604320895555,0.823851018079633
"chr04_15782164",4,15782164,-0.487930891916335,0.423478335922896,0.250636006957617
"chr04_15967305",4,15967305,-0.251334611153709,0.444553732511437,0.572469620191531
"chr04_15970703",4,15970703,0.191485137432835,0.325356538655613,0.556844473852169
"chr04_16352399",4,16352399,0.2833066216985,0.400975767099107,0.480685336411575
"chr04_16401343",4,16401343,0.374284232153116,0.400802266987072,0.351530842172966
"chr04_16554927",4,16554927,-0.15573702691961,0.530876569829506,0.769557129514352
"chr04_16594798",4,16594798,0.381753660981417,0.482070177013113,0.42936872506055
"chr04_16697853",4,16697853,0.31562206438241,0.558527998638661,0.572651275242134
"chr04_16759174",4,16759174,0.220256554246646,0.406485578370116,0.588530204675857
"chr04_16793581",4,16793581,0.397187670943367,0.395735090664194,0.316768626969416
"chr04_16821154",4,16821154,0.399209027743041,0.632577682983719,0.528717756111437
"chr04_16828066",4,16828066,0.228182681770676,0.32429780832796,0.482499747188414
